0, 855, 605, 832, 365
5337, 600, 487, 625, 397
10317, 521, 447, 542, 418
15400, 492, 432, 498, 411
20448, 466, 410, 477, 407
25377, 471, 417, 478, 419
30332, 471, 419, 467, 417
35398, 458, 409, 448, 404
40470, 463, 414, 461, 421
45390, 471, 402, 474, 425
50160, 468, 408, 452, 402
55210, 459, 409, 447, 414
60250, 465, 415, 466, 399
65294, 466, 413, 456, 395
70230, 445, 404, 453, 395
74904, 455, 414, 462, 414
79997, 473, 430, 477, 420
84973, 464, 418, 460, 407
90009, 448, 417, 470, 421
95049, 459, 423, 482, 420
100084, 461, 414, 454, 409
105127, 447, 402, 459, 405
110163, 460, 421, 476, 419
115157, 473, 417, 470, 412
120198, 459, 405, 460, 399
125248, 455, 408, 478, 414
130132, 467, 423, 477, 422
135185, 453, 406, 458, 408
140150, 451, 414, 467, 425
145198, 469, 427, 479, 422
150333, 466, 422, 463, 408
155402, 460, 413, 455, 406
160490, 473, 424, 472, 429
165432, 470, 420, 468, 409
170504, 427, 414, 460, 399
175574, 448, 425, 476, 420
180457, 470, 419, 462, 421
185190, 430, 412, 457, 400
190250, 447, 413, 460, 420
195297, 472, 428, 475, 428
200357, 467, 398, 462, 397
205396, 456, 398, 431, 402
210432, 472, 410, 461, 414
214963, 479, 416, 460, 381
219469, 454, 414, 450, 385
224514, 454, 391, 472, 413
229550, 447, 413, 482, 411
234585, 453, 402, 455, 400
239621, 450, 407, 457, 417
244664, 474, 421, 467, 422
249701, 477, 413, 460, 412
254753, 458, 403, 456, 415
259609, 456, 411, 466, 422
264681, 474, 412, 459, 416
269821, 462, 400, 448, 409
274890, 465, 402, 468, 427
279961, 473, 409, 475, 419
285051, 459, 397, 453, 399
290159, 450, 403, 463, 409
295248, 472, 417, 473, 415
300292, 471, 407, 457, 399
305347, 457, 405, 456, 401
310395, 464, 418, 481, 415
315442, 476, 423, 464, 408
320489, 461, 408, 447, 409
325539, 462, 421, 469, 418
330664, 480, 428, 468, 420
335732, 466, 416, 455, 411
340787, 449, 410, 462, 422
345893, 466, 417, 477, 416
350942, 468, 409, 454, 407
355164, 457, 400, 444, 407
360004, 465, 417, 470, 425
365052, 469, 416, 469, 407
370097, 451, 408, 452, 398
375133, 457, 419, 471, 392
380176, 468, 426, 475, 409
385212, 464, 419, 458, 393
390247, 460, 413, 469, 416
395286, 479, 421, 477, 427
400321, 474, 410, 462, 404
405357, 448, 410, 452, 418
410394, 475, 428, 478, 434
415431, 474, 427, 473, 408
420472, 459, 412, 453, 410
425507, 458, 424, 470, 430
430545, 481, 430, 477, 425
435580, 465, 419, 458, 404
440615, 453, 412, 458, 409
445653, 466, 419, 463, 421
450688, 470, 413, 453, 402
455724, 462, 406, 459, 417
460761, 478, 423, 469, 422
465799, 480, 417, 460, 416
470834, 463, 403, 457, 415
475890, 465, 411, 468, 424
480930, 475, 420, 475, 420
485966, 464, 414, 456, 414
491004, 461, 422, 465, 417
496087, 473, 405, 470, 420
501123, 464, 405, 463, 406
506160, 459, 406, 463, 408
511203, 470, 423, 472, 426
516240, 475, 415, 464, 412
521275, 455, 401, 460, 403
526310, 459, 413, 466, 417
531348, 467, 421, 472, 409
536389, 451, 409, 459, 401
541427, 454, 405, 471, 418
546468, 446, 417, 469, 424
551504, 444, 409, 451, 409
556539, 450, 407, 457, 414
561501, 459, 415, 475, 431
566563, 464, 409, 461, 407
571625, 453, 402, 456, 407
576660, 470, 420, 479, 419
581488, 477, 427, 469, 409
586524, 456, 410, 459, 406
591557, 465, 416, 469, 428
596597, 475, 427, 469, 413
601631, 456, 414, 451, 396
606666, 458, 416, 456, 408
611703, 476, 429, 472, 422
616738, 464, 419, 452, 397
621772, 455, 408, 463, 408
626809, 468, 424, 471, 427
631845, 478, 429, 463, 409
636883, 465, 414, 454, 403
641917, 457, 421, 461, 416
646956, 472, 425, 462, 419
651992, 466, 413, 453, 403
657026, 448, 403, 457, 410
662066, 445, 421, 475, 425
667107, 449, 414, 455, 410
672150, 446, 407, 454, 421
677192, 437, 419, 479, 423
682227, 460, 414, 466, 405
687042, 445, 409, 458, 397
692061, 452, 419, 462, 422
697142, 475, 421, 473, 421
702179, 462, 408, 453, 407
707215, 463, 415, 457, 417
712257, 470, 420, 467, 421
717290, 459, 420, 451, 401
722323, 446, 416, 458, 406
727219, 454, 426, 448, 425
732255, 473, 430, 457, 405
737290, 453, 419, 451, 398
742326, 453, 420, 465, 425
747273, 470, 420, 468, 417
752307, 465, 412, 458, 397
757341, 462, 418, 473, 415
762373, 466, 431, 475, 417
767415, 469, 415, 453, 402
772451, 450, 408, 459, 384
777508, 471, 423, 471, 415
782574, 470, 409, 455, 400
787711, 427, 402, 450, 408
792780, 449, 419, 477, 429
797871, 464, 419, 469, 410
802927, 458, 407, 451, 407
807971, 449, 413, 461, 415
813014, 463, 419, 463, 420
818078, 454, 402, 451, 407
823124, 424, 412, 457, 420
828171, 465, 428, 474, 432
833235, 465, 425, 466, 413
838269, 453, 414, 458, 407
843304, 460, 404, 480, 424
848342, 477, 414, 473, 405
853389, 456, 405, 453, 396
858434, 452, 413, 465, 422
863511, 478, 417, 474, 424
868581, 456, 411, 462, 409
873629, 462, 412, 474, 421
878674, 478, 424, 473, 421
883782, 464, 420, 457, 400
888841, 457, 415, 453, 403
893886, 472, 423, 472, 418
899033, 472, 412, 438, 378
903934, 460, 412, 446, 365
908980, 468, 415, 472, 408
914071, 481, 422, 469, 401
919117, 454, 391, 452, 394
924157, 463, 399, 471, 420
929198, 471, 411, 477, 425
934244, 459, 401, 457, 407
939289, 445, 401, 455, 408
944353, 465, 415, 471, 414
949432, 464, 409, 457, 408
954480, 458, 406, 453, 413
959526, 472, 420, 467, 424
964579, 482, 427, 464, 414
969629, 465, 408, 459, 378
974676, 462, 420, 462, 416
979725, 481, 421, 475, 411
984765, 468, 413, 452, 396
989799, 461, 406, 468, 419
994834, 468, 424, 481, 422
999880, 460, 422, 468, 408
1004934, 454, 414, 452, 415
1009985, 470, 424, 469, 420
1014904, 442, 405, 468, 417
1019959, 452, 404, 460, 402
1024843, 461, 417, 479, 425
1029987, 476, 424, 472, 418
1035032, 467, 406, 458, 374
1040066, 450, 407, 437, 406
1045101, 474, 414, 458, 409
1050138, 460, 407, 447, 402
1055172, 458, 409, 452, 412
1060226, 473, 413, 464, 433
1065097, 471, 414, 463, 410
1069921, 454, 413, 453, 396
1074992, 462, 410, 471, 393
1080095, 450, 425, 471, 405
1085216, 457, 417, 451, 401
1090288, 451, 411, 458, 414
1095359, 471, 418, 440, 428
1100430, 463, 395, 451, 400
1105500, 455, 397, 456, 404
1110570, 463, 413, 476, 413
1115641, 466, 409, 458, 406
1120711, 458, 402, 459, 397
1125782, 467, 409, 472, 422
1130852, 477, 414, 479, 386
1135924, 463, 409, 457, 396
1140994, 454, 406, 458, 420
1146065, 460, 395, 466, 428
1151137, 457, 401, 456, 414
1156209, 454, 400, 458, 424
1161281, 478, 417, 476, 435
1166348, 463, 408, 453, 405
1171387, 448, 400, 451, 406
1176341, 470, 413, 464, 416
1181410, 470, 417, 470, 412
1186535, 429, 408, 461, 411
1191624, 450, 404, 466, 428
1196688, 443, 413, 479, 425
1201765, 447, 407, 454, 405
1206834, 451, 412, 468, 420
1211904, 472, 430, 483, 428
1216976, 472, 422, 461, 413
1222082, 459, 405, 461, 410
1227260, 462, 416, 475, 427
1232331, 478, 419, 459, 412
1237411, 461, 408, 449, 413
1242418, 465, 419, 460, 423
1247252, 472, 421, 471, 407
1252316, 465, 408, 452, 397
1257359, 458, 408, 472, 419
1262316, 480, 424, 479, 420
1267379, 477, 414, 459, 407
1272416, 454, 408, 454, 408
1277454, 440, 423, 447, 426
1282496, 464, 421, 444, 414
1287539, 459, 409, 454, 414
1292581, 467, 420, 476, 430
1297616, 475, 425, 474, 408
1302653, 454, 404, 450, 375
1307689, 429, 419, 471, 403
1312725, 456, 426, 476, 407
1317761, 462, 421, 463, 393
1322800, 457, 407, 460, 405
1327835, 467, 419, 480, 422
1332871, 465, 417, 470, 379
1337920, 448, 409, 452, 391
1342958, 467, 418, 477, 418
1347993, 477, 423, 471, 414
1353031, 459, 409, 455, 412
1358073, 463, 415, 464, 431
1363110, 473, 422, 470, 422
1368148, 459, 390, 454, 377
1373188, 452, 380, 473, 402
1378243, 477, 405, 475, 423
1383278, 469, 402, 457, 404
1388317, 455, 403, 456, 413
1393355, 463, 412, 478, 427
1398391, 465, 416, 463, 407
1403427, 454, 412, 452, 398
1408468, 452, 423, 472, 424
1413276, 473, 424, 477, 425
1418318, 459, 415, 454, 406
1423362, 450, 415, 465, 422
1428399, 461, 419, 470, 430
1433434, 458, 409, 460, 402
1438472, 422, 405, 465, 415
1443508, 457, 418, 472, 425
1448543, 462, 399, 468, 405
1453578, 456, 392, 462, 401
1458615, 468, 410, 472, 416
1463650, 477, 396, 477, 406
1468688, 459, 401, 462, 401
1473730, 459, 402, 471, 416
1478766, 470, 414, 467, 423
1483800, 435, 388, 451, 403
1488837, 436, 391, 458, 406
1493873, 464, 407, 448, 424
1498913, 476, 410, 458, 419
1503950, 460, 399, 457, 409
1508990, 471, 409, 474, 421
1514025, 476, 417, 464, 407
1519059, 466, 408, 456, 402
1524095, 465, 414, 474, 390
1529130, 469, 423, 452, 381
1534165, 468, 419, 452, 381
1539205, 461, 415, 459, 401
1544240, 470, 420, 473, 418
1549276, 479, 420, 457, 412
1554310, 452, 405, 455, 414
1559351, 454, 410, 467, 432
1564385, 465, 419, 466, 422
1569425, 451, 409, 458, 411
1574463, 456, 412, 445, 418
1579499, 477, 425, 457, 391
1584534, 466, 417, 452, 386
1589573, 459, 413, 466, 402
1594609, 468, 426, 479, 425
1599644, 470, 411, 460, 403
1604680, 461, 406, 450, 411
1609720, 472, 422, 475, 418
1614756, 479, 413, 463, 416
1619790, 457, 402, 447, 398
1624828, 462, 405, 465, 424
1629828, 468, 418, 472, 413
1634863, 467, 403, 462, 394
1639903, 454, 403, 459, 419
1644939, 478, 414, 472, 426
1649974, 479, 414, 462, 409
1655015, 454, 407, 432, 408
1660055, 474, 423, 472, 428
1665090, 481, 421, 466, 403
1670128, 453, 408, 458, 402
1675174, 454, 412, 464, 426
1680212, 448, 427, 472, 423
1685253, 455, 412, 462, 405
1690318, 451, 419, 469, 419
1695355, 466, 422, 473, 416
1700390, 469, 418, 461, 408
1705427, 457, 415, 449, 418
1710320, 460, 423, 472, 401
1715356, 473, 420, 469, 399
1720465, 455, 413, 452, 395
1725524, 462, 415, 461, 415
1730559, 477, 418, 462, 404
1735596, 459, 403, 454, 402
1740634, 453, 403, 438, 392
1745727, 468, 419, 468, 413
1750762, 469, 413, 459, 397
1755798, 450, 413, 461, 408
1760834, 472, 420, 473, 414
1765869, 482, 420, 467, 409
1770906, 466, 414, 445, 404
1775930, 467, 400, 470, 426
1780970, 474, 415, 472, 421
1786006, 451, 404, 462, 409
1791141, 456, 415, 474, 417
1796198, 477, 418, 468, 420
1801246, 469, 413, 462, 411
1806108, 452, 413, 468, 421
1811172, 474, 425, 480, 427
1816093, 476, 414, 467, 403
1821131, 462, 407, 457, 404
1826170, 459, 419, 466, 426
1831234, 465, 416, 457, 419
1836272, 452, 410, 446, 407
1841310, 461, 420, 470, 420
1846346, 474, 435, 480, 424
1851387, 469, 421, 462, 412
1856422, 463, 416, 474, 427
1861545, 475, 432, 485, 423
1866617, 471, 422, 458, 406
1871703, 441, 387, 430, 416
1876760, 460, 408, 469, 434
1881816, 476, 418, 461, 417
1886851, 452, 411, 450, 411
1891888, 463, 415, 472, 422
1896927, 470, 424, 475, 388
1901964, 463, 413, 458, 381
1907001, 451, 413, 468, 405
1911812, 463, 420, 478, 410
1916958, 464, 409, 467, 390
1922027, 456, 405, 456, 398
1927117, 474, 421, 481, 424
1932154, 479, 414, 470, 401
1937189, 455, 412, 461, 399
1942228, 463, 420, 470, 416
1947266, 470, 420, 473, 415
1952302, 462, 405, 457, 400
1957358, 463, 410, 465, 422
1962396, 476, 412, 472, 416
1967432, 462, 411, 462, 409
1972467, 444, 405, 468, 412
1977505, 459, 419, 486, 427
1982540, 463, 413, 472, 404
1987575, 450, 405, 463, 410
1992617, 454, 419, 472, 431
1997659, 477, 415, 461, 414
2002694, 454, 404, 444, 409
2007729, 461, 405, 456, 421
2012768, 472, 416, 473, 416
2017803, 471, 408, 453, 393
2022858, 452, 404, 458, 404
2027896, 474, 407, 446, 426
2032932, 465, 406, 454, 399
2037971, 448, 400, 463, 408
2043010, 470, 419, 471, 428
2048046, 477, 415, 461, 418
2053080, 457, 405, 453, 413
2058115, 458, 415, 466, 419
2063157, 478, 420, 464, 416
2068192, 472, 417, 458, 405
2073230, 465, 415, 467, 422
2078273, 471, 422, 478, 430
2083334, 470, 420, 462, 401
2088190, 452, 387, 462, 400
2093243, 438, 398, 445, 425
2098280, 451, 389, 454, 410
2103316, 452, 394, 454, 396
2108352, 463, 405, 444, 424
2113414, 477, 420, 465, 419
2118272, 458, 398, 449, 405
2123093, 427, 409, 455, 416
2127768, 453, 420, 470, 418
2132712, 460, 412, 465, 377
2137582, 455, 409, 450, 391
2142483, 457, 415, 472, 415
2147169, 467, 414, 461, 407
2151889, 456, 410, 449, 401
2156950, 458, 406, 466, 417
2162027, 469, 422, 477, 417
2167062, 458, 406, 457, 397
2172101, 443, 410, 458, 412
2177144, 465, 424, 476, 429
2182187, 466, 418, 471, 407
2187258, 459, 411, 460, 406
2192329, 466, 422, 478, 416
2197374, 481, 419, 474, 419
2202410, 465, 405, 460, 399
2207445, 457, 407, 475, 418
2212491, 470, 418, 471, 424
2217543, 466, 405, 454, 379
2222608, 460, 403, 465, 402
2227472, 477, 413, 471, 423
2232507, 476, 415, 456, 405
2237543, 460, 401, 447, 404
2242579, 472, 412, 465, 415
2247618, 473, 422, 461, 409
2252655, 461, 414, 449, 404
2257689, 454, 421, 463, 395
2262740, 465, 424, 464, 405
2267784, 457, 408, 447, 392
2272897, 449, 411, 457, 416
2277948, 468, 420, 473, 430
2283002, 477, 422, 462, 413
2288041, 458, 412, 431, 414
2293083, 476, 429, 460, 420
2298120, 480, 422, 456, 415
2303165, 469, 413, 451, 403
2308200, 459, 417, 468, 419
2313245, 472, 424, 479, 419
2318281, 451, 415, 455, 398
2323316, 444, 413, 465, 420
2328354, 460, 426, 469, 429
2333391, 468, 413, 454, 407
2338426, 459, 406, 461, 406
2343465, 473, 420, 472, 414
2348501, 465, 399, 471, 396
2353541, 456, 397, 453, 393
2358580, 466, 410, 472, 415
2363617, 480, 412, 475, 405
2368678, 467, 405, 449, 395
2373530, 455, 408, 460, 412
2378569, 470, 425, 477, 422
2383605, 468, 417, 455, 395
2388632, 460, 411, 453, 403
2393637, 472, 418, 468, 420
2398673, 473, 397, 469, 414
2403711, 459, 395, 453, 414
2408751, 458, 405, 469, 433
2413705, 477, 416, 474, 416
2418744, 466, 414, 455, 405
2423781, 460, 395, 469, 419
2428820, 483, 409, 476, 423
2433855, 466, 408, 454, 404
2438890, 463, 408, 462, 419
2443925, 470, 426, 481, 424
2448963, 479, 421, 459, 415
2453998, 452, 411, 449, 406
2459034, 468, 421, 469, 428
2464075, 477, 422, 471, 421
2469112, 465, 411, 450, 402
2474148, 456, 416, 469, 423
2479184, 465, 426, 468, 424
2484220, 457, 410, 454, 397
2489254, 441, 384, 437, 406
2494289, 471, 410, 454, 422
2499332, 463, 389, 446, 413
2504369, 455, 397, 457, 410
2509405, 467, 411, 469, 433
2514442, 476, 409, 467, 412
2519365, 453, 402, 455, 412
2524435, 457, 412, 466, 428
2529505, 470, 418, 478, 424
2534576, 466, 410, 433, 409
2539647, 465, 413, 451, 423
2544776, 471, 426, 468, 423
2549843, 470, 424, 465, 400
2554879, 458, 418, 458, 382
2559922, 475, 427, 477, 415
2564960, 469, 423, 462, 404
2570019, 459, 412, 460, 409
2575084, 458, 424, 477, 425
2580131, 477, 429, 473, 421
2585169, 456, 417, 452, 399
2590225, 461, 416, 458, 420
2595259, 475, 430, 474, 426
2600295, 466, 413, 462, 396
2605330, 445, 406, 434, 380
2610365, 461, 421, 437, 417
2615403, 469, 418, 451, 402
2620440, 456, 416, 449, 394
2625475, 465, 426, 468, 393
2630511, 478, 432, 472, 395
2635550, 463, 410, 462, 392
2640610, 454, 418, 476, 417
2645682, 475, 427, 471, 418
2650721, 467, 417, 450, 409
2655756, 455, 409, 462, 418
2660791, 465, 424, 481, 434
2665830, 470, 420, 463, 417
2670869, 446, 416, 457, 409
2675906, 466, 426, 474, 425
2680949, 469, 431, 473, 408
2685986, 449, 413, 448, 408
2691088, 452, 412, 459, 432
2696124, 463, 417, 464, 428
2701162, 460, 412, 457, 416
2706197, 460, 418, 466, 415
2711232, 478, 430, 471, 426
2716273, 476, 425, 455, 412
2721308, 463, 414, 453, 419
2726380, 471, 428, 472, 429
2731275, 478, 433, 473, 410
2735645, 460, 419, 451, 410
2740725, 462, 418, 461, 415
2745780, 471, 431, 467, 412
2750833, 463, 416, 448, 404
2755889, 448, 411, 461, 418
2760930, 472, 420, 470, 417
2765757, 473, 420, 466, 405
2770798, 457, 413, 459, 405
2775840, 464, 418, 470, 421
2780913, 475, 398, 461, 408
2785953, 461, 400, 447, 407
2790993, 459, 411, 463, 415
2795817, 467, 421, 467, 418
2800675, 463, 408, 456, 406
2805711, 453, 409, 464, 390
2810746, 465, 423, 483, 416
2815783, 468, 419, 460, 408
2820639, 459, 409, 457, 400
2825675, 460, 414, 474, 430
2830639, 467, 423, 473, 421
2835678, 452, 409, 459, 401
2840560, 457, 412, 464, 420
2845596, 477, 426, 477, 424
2850633, 459, 419, 453, 408
2855669, 453, 410, 456, 423
2860643, 465, 427, 479, 427
2865679, 469, 419, 458, 402
2870714, 452, 401, 427, 377
2875749, 455, 412, 453, 408
2880639, 465, 414, 463, 400
2885676, 452, 411, 448, 404
2890709, 458, 412, 458, 425
2895743, 481, 425, 461, 421
2900641, 466, 419, 451, 402
2905673, 462, 416, 452, 420
2910642, 482, 433, 474, 433
2915681, 479, 422, 470, 409
2920693, 453, 416, 462, 404
2925573, 463, 422, 461, 416
2930475, 464, 406, 466, 415
2935519, 462, 405, 448, 398
2940554, 465, 412, 469, 422
2945594, 479, 422, 471, 427
2950630, 461, 408, 457, 402
2955665, 454, 412, 462, 406
2960700, 475, 428, 481, 425
2965735, 467, 425, 460, 404
2970769, 456, 412, 461, 412
2975803, 474, 424, 471, 432
2980756, 471, 427, 465, 421
2985805, 454, 414, 456, 403
2990840, 465, 419, 471, 415
2995875, 473, 422, 470, 419
3000910, 460, 409, 460, 399
3005950, 461, 410, 470, 412
3010987, 469, 426, 482, 427
3016020, 470, 422, 469, 408
3021056, 459, 414, 455, 402
3026091, 463, 426, 474, 431
3031125, 468, 431, 472, 408
3036159, 460, 412, 449, 407
3041194, 465, 421, 466, 423
3046228, 474, 420, 444, 412
3051262, 455, 419, 450, 403
3056373, 453, 413, 464, 410
3061425, 470, 418, 481, 392
3066476, 439, 417, 460, 395
3071524, 443, 411, 462, 407
3076584, 458, 423, 479, 418
3081636, 472, 420, 470, 414
3086710, 463, 413, 463, 412
3091282, 457, 415, 466, 431
3096310, 470, 423, 462, 421
3101346, 467, 411, 456, 403
3106387, 462, 405, 466, 412
3111429, 447, 417, 469, 413
3116463, 458, 416, 457, 403
3121500, 456, 414, 462, 413
3126535, 474, 431, 483, 423
3131570, 479, 422, 465, 407
3136607, 451, 391, 459, 404
3141647, 457, 403, 469, 427
3146687, 468, 414, 467, 421
3151723, 463, 384, 455, 402
3156765, 459, 402, 461, 423
3161802, 473, 419, 475, 419
3166837, 466, 413, 457, 406
3171873, 460, 408, 453, 407
3176955, 477, 414, 473, 414
3182003, 478, 416, 455, 396
3187040, 451, 404, 449, 407
3192075, 461, 408, 464, 426
3197111, 468, 409, 471, 388
3202146, 450, 398, 451, 398
3207188, 428, 413, 465, 408
3212247, 467, 423, 472, 422
3217285, 454, 414, 461, 378
3222323, 456, 411, 456, 406
3227338, 460, 418, 473, 411
3232304, 454, 395, 460, 395
3237346, 456, 395, 449, 399
3242382, 467, 407, 465, 415
3247417, 474, 415, 461, 405
3252456, 464, 401, 452, 399
3257493, 466, 409, 467, 411
3262528, 468, 419, 469, 409
3267562, 465, 406, 459, 399
3272605, 458, 409, 457, 413
3277642, 479, 420, 469, 417
3282676, 469, 417, 460, 406
3287713, 450, 411, 449, 410
3292753, 468, 418, 473, 417
3297789, 476, 420, 458, 402
3302824, 449, 402, 444, 392
3307863, 453, 417, 467, 418
3312901, 469, 423, 466, 407
3317937, 455, 409, 424, 391
3322977, 452, 409, 444, 407
3328012, 475, 425, 471, 418
3333051, 463, 412, 457, 409
3338092, 454, 414, 454, 409
3343127, 471, 427, 475, 424
3348162, 469, 418, 463, 416
3353201, 459, 413, 447, 412
3358238, 463, 416, 469, 430
3363282, 470, 421, 464, 413
3368337, 432, 412, 449, 402
3373383, 451, 419, 457, 423
3378418, 463, 425, 470, 421
3383457, 464, 414, 464, 405
3388547, 450, 416, 469, 410
3393605, 472, 424, 477, 427
3398643, 463, 424, 463, 405
3403678, 450, 417, 452, 405
3408739, 466, 422, 470, 417
3413602, 472, 403, 463, 414
3418636, 466, 393, 450, 409
3423672, 434, 405, 459, 421
3428710, 469, 422, 470, 415
3433744, 466, 413, 448, 401
3438781, 448, 411, 460, 407
3443820, 471, 421, 478, 422
3448854, 464, 417, 470, 412
3453889, 461, 410, 461, 415
3458884, 461, 411, 473, 423
3463956, 470, 421, 472, 415
3469044, 466, 412, 461, 416
3474096, 477, 423, 469, 431
3479131, 479, 423, 470, 417
3483931, 460, 419, 464, 400
3488968, 461, 409, 465, 407
3494003, 468, 419, 476, 415
3499064, 471, 407, 456, 399
3504019, 451, 406, 447, 401
3508905, 467, 421, 468, 415
3513921, 467, 420, 461, 410
3518829, 459, 418, 452, 408
3523871, 454, 403, 475, 419
3528906, 477, 410, 473, 419
3534003, 471, 411, 464, 402
3539055, 456, 410, 462, 424
3544096, 479, 427, 467, 432
3549129, 478, 420, 461, 408
3554022, 452, 419, 459, 418
3559043, 471, 421, 473, 424
3564062, 472, 424, 476, 391
3568766, 465, 419, 465, 399
3573873, 463, 424, 476, 415
3578902, 477, 426, 488, 426
3583961, 470, 424, 470, 413
3588787, 465, 421, 462, 419
3593605, 474, 429, 480, 425
3598653, 484, 421, 473, 413
3603459, 466, 408, 458, 413
3608500, 462, 425, 473, 423
3613156, 481, 427, 471, 420
3617820, 464, 411, 456, 413
3622723, 463, 412, 472, 423
3627793, 474, 426, 485, 422
3632834, 465, 419, 457, 413
3637320, 446, 403, 446, 407
3642179, 430, 414, 468, 420
3647229, 463, 398, 472, 413
3652046, 451, 398, 453, 407
3657090, 450, 412, 463, 420
3661894, 476, 427, 468, 425
3666709, 473, 416, 450, 403
3671762, 455, 417, 457, 413
3676585, 463, 425, 473, 425
3681426, 465, 423, 459, 410
3686236, 450, 411, 446, 412
3691065, 461, 415, 471, 430
3696074, 473, 423, 465, 426
3700692, 462, 413, 455, 412
3705538, 459, 405, 460, 423
3710219, 466, 417, 475, 422
3715039, 456, 416, 464, 381
3719973, 457, 407, 447, 390
3724958, 457, 417, 464, 418
3729607, 470, 420, 472, 407
3734457, 465, 415, 457, 396
3739311, 454, 410, 460, 419
3744358, 474, 418, 471, 415
3749187, 441, 417, 459, 396
3754064, 433, 408, 453, 395
3758958, 454, 419, 462, 409
3764024, 472, 416, 467, 402
3769095, 450, 409, 452, 393
3774170, 464, 419, 473, 409
3779296, 477, 420, 471, 413
3784118, 460, 416, 455, 397
3789192, 459, 408, 458, 416
3794260, 466, 413, 478, 427
3799301, 459, 411, 466, 404
3803863, 448, 406, 464, 415
3808904, 465, 417, 468, 431
3813954, 477, 422, 473, 415
3819004, 456, 418, 459, 403
3824045, 463, 423, 468, 414
3829116, 469, 422, 467, 388
3834157, 463, 415, 450, 393
3839195, 457, 414, 452, 414
3844234, 472, 430, 475, 413
3849271, 472, 415, 458, 403
3854308, 465, 408, 459, 404
3859344, 467, 421, 474, 416
3864377, 469, 423, 471, 404
3869237, 458, 408, 458, 404
3874274, 468, 418, 464, 419
3879312, 486, 421, 473, 419
3884144, 471, 407, 454, 398
3889030, 456, 405, 467, 408
3894071, 475, 413, 477, 428
3899108, 468, 413, 463, 417
3904141, 451, 404, 451, 413
3909052, 459, 410, 470, 422
3914146, 470, 420, 472, 403
3919220, 459, 409, 430, 393
3924292, 462, 418, 467, 411
3929427, 480, 426, 466, 414
3934502, 476, 419, 457, 409
3939574, 467, 416, 468, 422
3944644, 473, 425, 475, 430
3949526, 465, 414, 455, 415
3954572, 454, 403, 453, 414
3959629, 472, 416, 471, 427
3964733, 475, 409, 459, 407
3969632, 453, 403, 454, 405
3974679, 460, 408, 469, 414
3979614, 445, 412, 469, 418
3984463, 445, 408, 455, 412
3988958, 444, 414, 456, 423
3993923, 468, 428, 477, 425
3998544, 468, 417, 459, 413
4003588, 465, 407, 456, 410
4008444, 461, 411, 470, 432
4013388, 471, 422, 476, 423
4018460, 461, 412, 452, 410
4023370, 457, 408, 467, 422
4027972, 469, 422, 471, 429
4032827, 466, 419, 456, 413
4037596, 461, 416, 461, 407
4042188, 461, 424, 468, 420
4046894, 466, 429, 469, 422
4051864, 464, 419, 461, 415
4056584, 461, 415, 461, 420
4061690, 476, 423, 467, 393
4066512, 467, 413, 457, 397
4071637, 460, 408, 462, 404
4076710, 477, 422, 477, 422
4081262, 465, 420, 466, 416
4086175, 452, 405, 457, 400
4090910, 459, 414, 471, 425
4095634, 473, 420, 465, 417
4100256, 458, 417, 456, 401
4105083, 457, 415, 463, 412
4110167, 465, 420, 470, 427
4115117, 466, 428, 469, 407
4120174, 460, 418, 456, 408
4124576, 456, 432, 477, 429
4129231, 476, 430, 465, 427
4134298, 454, 398, 457, 408
4138777, 448, 410, 462, 427
4143423, 469, 422, 463, 422
4148176, 471, 417, 463, 417
4152978, 458, 411, 456, 412
4157655, 469, 416, 468, 430
4162593, 472, 403, 481, 396
4167757, 468, 398, 458, 398
4172523, 471, 404, 438, 404
4177462, 474, 421, 455, 419
4182553, 474, 406, 445, 404
4187405, 426, 388, 456, 401
4192379, 457, 404, 458, 418
4196902, 466, 400, 455, 415
4201976, 431, 407, 453, 403
4207029, 445, 406, 455, 413
4211665, 458, 405, 458, 411
4216632, 424, 398, 426, 406
4221446, 447, 407, 451, 417
4226540, 460, 417, 468, 421
4231504, 459, 416, 464, 404
4236177, 442, 411, 457, 404
4240961, 453, 412, 462, 421
4245640, 464, 420, 439, 418
4250714, 465, 408, 437, 410
4255766, 454, 413, 444, 419
4260453, 469, 417, 466, 424
4265345, 461, 412, 466, 411
4270303, 451, 409, 458, 405
4274717, 453, 412, 470, 420
4279485, 460, 411, 470, 421
4284349, 448, 398, 429, 399
4289415, 452, 403, 451, 414
4294255, 472, 411, 462, 427
4299321, 477, 409, 460, 406
4304139, 455, 403, 448, 417
4308628, 460, 418, 470, 424
4313565, 476, 424, 462, 420
4318629, 465, 417, 454, 379
4323387, 458, 413, 437, 401
4328362, 477, 424, 457, 410
4333002, 467, 421, 453, 402
4337713, 449, 410, 452, 417
4342228, 455, 423, 468, 417
4346903, 461, 419, 439, 410
4351959, 448, 405, 439, 375
4357011, 447, 414, 460, 399
4362064, 463, 427, 469, 405
4366918, 454, 411, 457, 395
4371931, 452, 406, 453, 408
4376768, 461, 420, 469, 425
4381508, 459, 412, 460, 410
4386559, 453, 409, 459, 412
4391604, 459, 414, 464, 433
4396666, 466, 422, 456, 412
4401548, 447, 407, 452, 405
4406534, 450, 409, 463, 418
4411194, 471, 415, 469, 411
4415993, 459, 405, 452, 402
4421036, 453, 404, 451, 411
4425923, 460, 396, 470, 421
4430759, 476, 411, 465, 412
4435768, 465, 404, 453, 413
4440818, 465, 416, 470, 417
4445638, 471, 422, 460, 411
4450694, 458, 409, 454, 395
4455733, 460, 407, 465, 407
4460778, 465, 420, 477, 414
4465611, 468, 418, 463, 408
4470648, 461, 412, 453, 416
4475480, 456, 399, 465, 432
4480324, 462, 406, 463, 421
4485373, 449, 396, 456, 411
4490283, 452, 410, 475, 422
4495336, 465, 422, 476, 424
4500371, 461, 414, 451, 414
4505268, 451, 405, 455, 426
4510014, 463, 420, 469, 433
4514842, 460, 411, 465, 409
4519882, 443, 408, 459, 407
4524930, 459, 420, 475, 427
4529986, 473, 422, 459, 410
4534948, 450, 385, 453, 395
4539996, 428, 404, 465, 413
4545059, 467, 422, 468, 420
4549988, 455, 409, 461, 406
4555052, 450, 411, 458, 419
4560097, 470, 415, 462, 424
4564774, 464, 415, 462, 412
4569848, 458, 405, 460, 413
4574982, 469, 412, 478, 423
4580040, 477, 421, 476, 408
4584844, 459, 404, 452, 374
4589898, 460, 416, 466, 408
4594540, 471, 413, 447, 420
4599456, 470, 416, 448, 409
4604507, 461, 414, 462, 415
4609413, 466, 429, 478, 421
4614358, 475, 419, 468, 404
4619407, 450, 407, 450, 407
4624284, 459, 411, 459, 419
4628973, 470, 414, 462, 410
4633897, 434, 416, 458, 390
4638774, 448, 418, 459, 412
4643662, 467, 406, 477, 429
4648572, 471, 408, 462, 405
4653611, 454, 405, 457, 406
4658425, 453, 412, 468, 429
4663483, 462, 411, 460, 415
4668327, 459, 405, 452, 397
4673198, 452, 405, 465, 409
4677857, 474, 419, 476, 414
4682775, 471, 413, 464, 406
4687823, 455, 407, 467, 402
4692872, 461, 416, 473, 411
4697806, 465, 419, 461, 399
4702866, 454, 413, 452, 398
4707692, 464, 414, 460, 410
4712306, 475, 423, 458, 418
4717362, 465, 414, 458, 409
4722399, 458, 419, 467, 419
4727453, 473, 424, 478, 421
4732503, 472, 421, 465, 403
4737624, 461, 415, 462, 412
4742433, 470, 418, 476, 427
4747330, 466, 424, 475, 408
4752401, 459, 414, 456, 411
4757209, 459, 422, 472, 418
4762088, 467, 419, 474, 406
4767115, 454, 406, 432, 405
4772093, 461, 410, 442, 407
4776888, 463, 413, 454, 418
4781538, 465, 415, 444, 412
4786392, 454, 405, 449, 412
4791310, 452, 414, 467, 428
4796163, 474, 422, 464, 422
4800958, 468, 418, 458, 413
4805765, 464, 419, 465, 413
4810814, 475, 420, 470, 413
4815796, 462, 420, 465, 397
4820859, 456, 416, 462, 399
4825406, 466, 427, 475, 412
4830337, 474, 417, 462, 410
4835378, 432, 409, 447, 411
4840389, 437, 412, 456, 422
4845445, 463, 413, 468, 424
4850504, 459, 412, 464, 411
4855542, 450, 416, 468, 421
4860586, 468, 418, 481, 417
4865669, 470, 415, 458, 402
4870705, 445, 404, 445, 381
4875723, 459, 395, 462, 405
4880840, 466, 408, 468, 399
4885892, 464, 408, 464, 399
4890718, 467, 417, 476, 414
4895610, 474, 421, 466, 386
4900668, 467, 404, 430, 384
4905706, 457, 415, 445, 416
4910754, 471, 423, 467, 415
4915767, 465, 419, 452, 406
4920803, 455, 417, 458, 416
4925723, 460, 415, 448, 429
4930784, 475, 424, 465, 413
4935831, 460, 420, 455, 410
4940691, 461, 401, 467, 416
4945576, 467, 411, 469, 420
4950619, 462, 402, 461, 405
4955440, 451, 409, 463, 414
4960322, 463, 416, 473, 396
4964908, 461, 418, 461, 405
4969950, 451, 391, 462, 410
4974957, 463, 409, 481, 420
4980015, 476, 419, 477, 421
4984881, 470, 411, 465, 411
4989864, 458, 407, 466, 420
4994625, 444, 417, 481, 426
4999402, 447, 411, 462, 417
5004525, 449, 411, 468, 423
5009254, 463, 416, 482, 429
5014314, 473, 419, 465, 415
5019353, 460, 413, 461, 412
5024388, 468, 416, 470, 428
5029428, 481, 425, 445, 427
5034462, 470, 415, 445, 413
5039495, 468, 414, 458, 425
5044530, 485, 425, 464, 428
5049565, 469, 415, 461, 387
5054617, 453, 413, 461, 409
5059653, 468, 419, 472, 418
5064688, 476, 415, 472, 418
5069735, 471, 413, 470, 421
5074779, 473, 418, 482, 431
5079822, 480, 425, 481, 423
5084860, 470, 412, 461, 410
5089897, 470, 413, 473, 432
5094959, 482, 423, 476, 430
5100000, 476, 412, 458, 408
5104817, 472, 417, 465, 422
5109833, 483, 423, 475, 435
5114891, 473, 417, 470, 414
5119928, 458, 415, 470, 386
5124963, 472, 421, 472, 389
5130001, 481, 421, 477, 402
5135036, 464, 416, 457, 409
5140068, 467, 415, 469, 420
5145108, 480, 419, 472, 430
5150148, 477, 414, 465, 420
5155187, 465, 417, 467, 428
5160231, 469, 424, 484, 426
5165031, 472, 424, 472, 384
5170067, 465, 418, 453, 405
5174988, 469, 420, 472, 425
5180030, 479, 418, 477, 412
5185071, 460, 412, 458, 414
5190110, 465, 419, 464, 431
5195150, 480, 429, 474, 424
5200193, 472, 419, 451, 416
5205229, 465, 411, 457, 415
5210268, 471, 417, 473, 420
5215124, 469, 413, 458, 411
5220161, 459, 407, 446, 411
5225196, 463, 415, 472, 429
5230237, 469, 414, 459, 412
5235275, 451, 401, 453, 406
5240310, 456, 406, 458, 429
5245349, 476, 397, 475, 420
5250393, 472, 398, 453, 406
5255428, 463, 396, 465, 425
5260469, 477, 415, 477, 429
5265509, 471, 408, 461, 408
5270546, 454, 398, 454, 414
5275584, 472, 416, 475, 429
5280625, 477, 411, 468, 409
5285667, 453, 401, 448, 407
5290709, 454, 409, 472, 418
5295749, 476, 418, 475, 420
5300790, 469, 399, 458, 397
5305658, 454, 398, 467, 412
5310701, 444, 419, 473, 425
5315743, 450, 411, 458, 407
5320780, 436, 397, 431, 408
5325816, 454, 413, 458, 433
5330858, 473, 411, 462, 409
5335895, 450, 404, 459, 404
5340936, 465, 413, 473, 396
5345977, 472, 423, 470, 409
5351017, 464, 409, 458, 404
5356053, 464, 408, 467, 423
5360924, 477, 399, 470, 421
5365725, 468, 393, 433, 399
5370762, 452, 401, 446, 409
5375799, 470, 416, 476, 425
5380834, 480, 421, 469, 405
5385876, 453, 409, 459, 406
5390916, 458, 416, 472, 430
5395957, 481, 427, 462, 413
5400996, 463, 412, 455, 400
5405976, 457, 417, 463, 422
5410972, 473, 422, 474, 416
5416009, 465, 409, 464, 410
5420954, 447, 401, 454, 418
5425990, 462, 421, 479, 432
5431027, 475, 413, 462, 406
5436064, 454, 406, 449, 409
5441099, 454, 422, 466, 422
5446134, 476, 422, 476, 388
5451175, 471, 414, 460, 397
5456211, 456, 417, 463, 418
5461247, 475, 427, 465, 425
5466287, 471, 417, 452, 403
5471324, 450, 404, 461, 411
5476163, 439, 423, 471, 425
5480694, 455, 419, 462, 411
5485577, 445, 406, 457, 403
5490442, 451, 416, 465, 416
5495049, 461, 428, 462, 410
5499752, 453, 413, 455, 403
5504583, 448, 406, 456, 410
5509683, 460, 421, 475, 414
5514736, 458, 419, 458, 376
5519465, 454, 411, 457, 395
5524393, 465, 417, 470, 415
5529434, 469, 421, 442, 408
5534279, 458, 403, 448, 402
5539350, 427, 410, 453, 387
5544069, 456, 429, 465, 410
5549141, 464, 421, 451, 393
5554174, 457, 411, 451, 399
5559141, 464, 424, 475, 423
5564192, 478, 420, 458, 407
5569231, 432, 416, 455, 397
5574267, 452, 417, 471, 417
5579314, 476, 418, 474, 413
5584362, 458, 415, 463, 398
5589407, 459, 410, 467, 422
5594097, 472, 428, 473, 430
5598850, 475, 420, 457, 381
5603898, 451, 407, 459, 401
5608893, 468, 418, 475, 416
5613949, 464, 412, 469, 412
5618787, 446, 402, 450, 410
5623826, 428, 417, 459, 428
5628697, 462, 420, 466, 427
5633799, 451, 406, 457, 403
5638695, 447, 400, 457, 409
5643385, 463, 417, 472, 422
5648301, 462, 418, 465, 412
5653359, 455, 408, 450, 417
5658154, 453, 412, 470, 423
5662931, 466, 413, 473, 409
5667977, 459, 405, 452, 392
5673014, 451, 408, 468, 405
5678062, 470, 410, 471, 416
5682640, 449, 383, 452, 404
5687687, 445, 390, 459, 417
5692480, 458, 412, 469, 429
5697387, 477, 415, 460, 413
5702434, 449, 400, 446, 399
5707471, 459, 414, 469, 419
5712522, 471, 426, 471, 411
5717490, 457, 405, 450, 399
5722494, 448, 406, 463, 412
5727050, 468, 423, 471, 423
5731703, 472, 415, 453, 399
5736635, 456, 402, 447, 396
5741237, 464, 416, 459, 421
5746237, 467, 421, 457, 413
5750882, 448, 412, 445, 401
5755924, 456, 419, 462, 415
5760967, 473, 431, 475, 413
5766008, 465, 412, 457, 394
5770840, 454, 400, 451, 408
5775257, 466, 417, 465, 426
5779890, 476, 417, 458, 385
5784284, 462, 401, 438, 389
5788892, 425, 410, 455, 403
5793032, 452, 426, 464, 417
5797593, 469, 426, 458, 402
5802193, 453, 406, 456, 405
5807104, 453, 418, 469, 422
5811832, 465, 417, 464, 424
5816876, 459, 405, 457, 407
5821386, 445, 399, 450, 413
5826341, 465, 410, 473, 417
5831136, 462, 415, 461, 403
5835716, 452, 407, 451, 396
5840779, 462, 410, 453, 422
5845615, 458, 392, 467, 387
5850664, 426, 399, 445, 386
5855549, 444, 401, 459, 412
5860390, 469, 418, 466, 428
5865192, 471, 415, 458, 413
5870238, 448, 407, 444, 406
5874944, 462, 415, 468, 424
5879816, 464, 420, 471, 418
5884789, 456, 409, 448, 375
5889710, 457, 408, 465, 402
5894763, 468, 417, 469, 417
5899484, 432, 412, 454, 397
5904403, 430, 410, 456, 402
5909255, 448, 425, 477, 422
5913855, 462, 424, 458, 413
5918322, 454, 417, 450, 404
5923288, 457, 411, 465, 424
5928334, 466, 420, 466, 429
5933093, 464, 415, 454, 400
5938128, 455, 409, 447, 414
5942743, 462, 420, 459, 414
5947695, 464, 396, 456, 393
5952733, 446, 399, 455, 393
5957626, 462, 409, 469, 417
5962661, 476, 415, 466, 405
5967705, 452, 403, 456, 400
5972766, 454, 404, 470, 423
5977839, 465, 422, 480, 420
5982821, 464, 415, 449, 405
5987666, 453, 403, 447, 412
5992711, 461, 414, 465, 426
5997683, 469, 417, 453, 400
6002725, 455, 408, 441, 404
6007561, 456, 413, 464, 424
6012230, 475, 418, 469, 411
6017027, 454, 412, 449, 396
6022096, 457, 414, 459, 416
6027135, 466, 425, 467, 427
6032172, 457, 416, 454, 407
6037217, 452, 414, 457, 408
6042253, 467, 417, 473, 426
6047288, 473, 414, 467, 418
6052326, 453, 407, 456, 401
6057266, 450, 408, 461, 421
6062134, 443, 422, 459, 412
6066810, 444, 408, 443, 390
6071540, 446, 403, 446, 414
6076330, 469, 410, 438, 428
6081402, 461, 393, 452, 412
6086456, 455, 395, 453, 415
6091082, 457, 407, 465, 425
6096124, 475, 416, 470, 418
6101162, 453, 410, 457, 408
6106202, 455, 416, 462, 426
6110770, 470, 428, 472, 417
6115442, 469, 422, 462, 398
6120020, 445, 415, 447, 393
6124905, 458, 423, 462, 416
6129752, 472, 419, 433, 401
6134252, 460, 406, 425, 390
6138922, 453, 387, 444, 413
6143785, 469, 407, 471, 418
6148691, 469, 407, 457, 404
6153735, 449, 397, 448, 410
6158778, 459, 406, 463, 396
6163821, 471, 413, 455, 399
6168865, 449, 400, 447, 391
6173684, 457, 410, 460, 409
6178590, 466, 424, 470, 405
6183458, 462, 414, 437, 394
6188499, 451, 387, 447, 417
6193540, 460, 405, 458, 423
6198105, 468, 404, 457, 404
6203145, 455, 401, 446, 376
6207988, 459, 407, 470, 402
6213025, 462, 409, 469, 394
6217621, 441, 398, 451, 362
6222660, 441, 406, 452, 370
6227699, 456, 399, 469, 405
6232512, 461, 391, 457, 392
6237547, 446, 396, 452, 398
6242543, 469, 416, 473, 419
6247624, 466, 417, 454, 399
6252697, 454, 397, 454, 392
6257629, 429, 410, 441, 407
6262207, 460, 420, 447, 403
6267014, 443, 403, 435, 388
6272054, 438, 403, 452, 412
6277091, 455, 417, 474, 421
6282132, 458, 414, 460, 402
6286986, 450, 399, 456, 411
6292027, 453, 409, 475, 425
6296933, 465, 410, 459, 404
6301970, 451, 403, 445, 402
6306776, 449, 405, 460, 409
6311676, 465, 418, 465, 412
6316445, 447, 386, 446, 401
6321304, 437, 389, 425, 404
6326345, 458, 410, 459, 421
6331216, 468, 414, 453, 404
6336171, 454, 405, 439, 404
6341208, 451, 413, 457, 428
6346273, 460, 415, 462, 418
6350965, 456, 401, 438, 402
6355968, 444, 404, 430, 418
6360743, 473, 419, 427, 425
6365663, 461, 411, 436, 396
6370722, 450, 402, 437, 409
6375506, 434, 415, 456, 420
6380308, 427, 419, 458, 411
6384877, 435, 404, 450, 403
6389687, 446, 405, 466, 418
6394647, 472, 416, 480, 422
6399246, 468, 413, 460, 406
6404189, 457, 409, 455, 414
6408754, 461, 414, 470, 418
6413390, 466, 405, 452, 413
6418189, 444, 400, 438, 399
6423240, 457, 405, 461, 414
6427897, 473, 412, 467, 422
6432719, 462, 404, 450, 375
6437265, 421, 408, 454, 395
6442119, 449, 412, 465, 417
6447012, 459, 419, 455, 406
6451417, 443, 406, 438, 401
6455714, 439, 410, 425, 417
6460261, 455, 429, 457, 420
6465247, 464, 418, 450, 408
6470054, 454, 406, 453, 415
6475000, 466, 411, 469, 423
6479948, 476, 413, 457, 406
6484529, 465, 399, 440, 403
6489391, 452, 404, 461, 416
6494388, 473, 410, 462, 424
6499016, 463, 383, 445, 407
6503883, 450, 390, 445, 412
6508562, 470, 410, 466, 415
6513372, 467, 420, 458, 409
6518084, 454, 415, 452, 401
6523080, 457, 415, 470, 421
6527940, 472, 421, 465, 416
6532640, 469, 413, 447, 404
6537436, 448, 410, 455, 415
6542488, 471, 425, 466, 427
6547275, 472, 418, 464, 406
6552104, 456, 407, 457, 373
6557142, 449, 415, 469, 403
6562182, 467, 416, 464, 411
6566621, 451, 413, 456, 394
6571669, 444, 415, 463, 418
6576219, 464, 419, 465, 430
6580711, 469, 417, 451, 400
6585776, 454, 404, 443, 408
6590572, 463, 416, 457, 427
6595355, 477, 423, 461, 419
6600399, 458, 414, 450, 396
6605470, 457, 417, 451, 421
6610519, 475, 422, 469, 426
6615364, 469, 419, 450, 377
6620090, 447, 406, 443, 395
6624729, 459, 422, 461, 413
6629612, 462, 400, 463, 405
6634669, 447, 402, 450, 399
6639633, 452, 402, 468, 421
6644707, 466, 414, 478, 418
6649787, 433, 410, 446, 392
6654216, 430, 402, 445, 414
6659262, 464, 413, 467, 432
6664108, 473, 411, 458, 405
6668978, 456, 398, 436, 398
6673862, 462, 390, 468, 425
6678841, 479, 399, 472, 419
6683741, 462, 396, 459, 404
6688206, 459, 403, 449, 417
6692570, 464, 412, 466, 422
6697648, 476, 413, 450, 413
6702365, 447, 406, 453, 403
6707426, 454, 417, 470, 419
6712219, 460, 426, 469, 408
6717023, 456, 391, 452, 389
6722103, 458, 398, 458, 408
6726838, 458, 395, 477, 427
6731607, 468, 394, 458, 408
6736523, 456, 393, 455, 414
6741321, 437, 408, 470, 434
6746216, 459, 421, 469, 407
6751000, 449, 403, 447, 401
6756046, 447, 404, 459, 414
6761083, 466, 422, 471, 424
6766153, 468, 417, 448, 408
6770901, 459, 410, 455, 407
6775732, 465, 413, 473, 417
6780804, 466, 417, 464, 401
6785870, 455, 402, 457, 398
6790971, 459, 408, 477, 428
6795850, 475, 417, 469, 424
6800407, 452, 410, 454, 411
6805470, 454, 409, 436, 417
6809899, 472, 426, 465, 426
6814740, 478, 424, 458, 410
6819600, 445, 411, 425, 400
6824636, 459, 424, 461, 425
6829648, 466, 428, 456, 412
6834537, 456, 409, 438, 393
6839434, 458, 413, 452, 415
6844363, 479, 423, 466, 413
6848862, 466, 409, 456, 401
6853803, 441, 402, 449, 410
6858618, 461, 418, 463, 429
6863667, 470, 413, 461, 406
6868272, 456, 404, 448, 373
6873316, 466, 418, 468, 401
6878195, 479, 424, 467, 414
6883253, 465, 416, 449, 405
6888084, 449, 417, 459, 415
6893122, 461, 426, 470, 420
6898166, 463, 423, 458, 409
6903207, 445, 408, 458, 410
6908245, 457, 419, 467, 398
6913292, 468, 422, 460, 402
6918282, 457, 412, 442, 402
6923328, 459, 423, 466, 426
6928364, 472, 426, 464, 426
6933400, 470, 418, 454, 409
6938439, 462, 417, 464, 417
6943483, 474, 417, 465, 417
6948519, 441, 412, 452, 399
6953535, 440, 410, 446, 402
6958345, 462, 418, 440, 393
6963333, 477, 424, 457, 391
6968383, 457, 416, 442, 389
6973422, 460, 426, 470, 409
6978460, 479, 431, 475, 407
6983528, 454, 406, 452, 394
6988191, 420, 402, 464, 414
6993235, 451, 424, 479, 429
6998273, 456, 420, 462, 405
7003312, 452, 416, 462, 408
7008390, 469, 427, 479, 415
7012994, 466, 422, 461, 409
7017866, 444, 403, 443, 397
7022908, 444, 412, 462, 412
7027949, 476, 425, 461, 409
7032998, 467, 409, 447, 393
7037586, 449, 404, 453, 409
7042364, 461, 421, 470, 425
7046977, 462, 419, 468, 407
7051596, 456, 410, 460, 398
7056673, 463, 420, 473, 393
7061534, 475, 419, 471, 407
7066279, 464, 410, 455, 393
7070994, 457, 412, 458, 403
7075398, 464, 428, 476, 424
7079909, 476, 431, 471, 406
7084331, 456, 403, 448, 373
7089021, 427, 413, 465, 403
7093930, 456, 424, 469, 410
7098553, 467, 411, 457, 407
7103451, 449, 405, 451, 405
7108208, 459, 416, 472, 424
7113200, 476, 424, 471, 420
7117997, 464, 417, 452, 412
7122738, 462, 415, 472, 429
7127298, 478, 425, 479, 430
7131890, 470, 414, 464, 386
7136725, 458, 408, 451, 406
7141682, 460, 423, 469, 432
7146339, 473, 422, 458, 424
7150958, 457, 415, 452, 402
7155548, 456, 420, 464, 422
7159978, 473, 427, 464, 432
7164598, 470, 423, 464, 416
7169414, 445, 412, 460, 419
7174055, 458, 425, 478, 430
7179010, 475, 427, 477, 413
7183739, 459, 411, 450, 398
7188656, 456, 407, 465, 420
7193357, 461, 421, 476, 419
7198400, 464, 412, 467, 400
7203292, 447, 411, 459, 410
7207919, 456, 421, 476, 430
7212374, 473, 421, 473, 426
7217178, 456, 409, 456, 414
7221861, 460, 409, 467, 425
7226408, 463, 420, 472, 433
7231380, 469, 409, 465, 414
7235899, 445, 402, 449, 402
7240799, 460, 420, 469, 429
7245508, 481, 425, 469, 421
7249937, 461, 415, 453, 399
7254291, 446, 408, 453, 405
7258891, 468, 417, 472, 425
7263348, 473, 414, 461, 409
7268069, 451, 383, 448, 406
7273002, 452, 401, 471, 428
7277850, 476, 418, 469, 429
7282664, 469, 402, 452, 407
7287719, 453, 406, 463, 412
7292763, 462, 416, 478, 429
7297493, 472, 416, 456, 409
7302341, 461, 411, 453, 402
7307163, 458, 416, 468, 396
7311901, 478, 423, 464, 409
7316961, 469, 410, 453, 392
7321511, 449, 405, 459, 418
7326211, 463, 414, 467, 431
7330729, 460, 408, 464, 408
7335776, 446, 400, 447, 414
7340826, 432, 413, 472, 436
7345875, 468, 422, 479, 425
7350864, 464, 414, 455, 402
7355604, 454, 388, 467, 412
7360434, 449, 413, 476, 429
7365476, 454, 407, 465, 404
7370243, 453, 400, 457, 415
7375284, 465, 419, 476, 430
7380236, 466, 423, 460, 417
7385307, 458, 402, 444, 405
7390148, 435, 417, 459, 426
7395212, 461, 422, 470, 392
7400187, 451, 417, 457, 396
7405048, 450, 417, 466, 420
7410094, 477, 424, 483, 430
7415138, 474, 418, 462, 400
7420184, 461, 417, 465, 415
7425223, 472, 426, 470, 429
7430261, 476, 404, 471, 414
7435187, 466, 398, 452, 413
7439984, 455, 406, 477, 423
7444581, 474, 414, 469, 420
7449493, 437, 412, 450, 410
7454182, 442, 405, 460, 424
7459051, 456, 420, 481, 434
7464012, 474, 423, 462, 386
7468607, 458, 405, 446, 397
7473611, 465, 411, 439, 424
7478396, 474, 424, 454, 422
7483449, 467, 417, 451, 397
7488114, 450, 414, 453, 412
7493129, 470, 403, 471, 416
7498072, 464, 406, 455, 407
7503115, 454, 397, 451, 406
7507914, 472, 408, 465, 431
7512748, 471, 418, 464, 418
7517791, 456, 415, 455, 410
7522826, 462, 417, 467, 430
7527866, 481, 422, 475, 427
7532903, 463, 414, 448, 403
7537730, 447, 405, 451, 415
7542801, 469, 419, 463, 421
7547713, 465, 413, 456, 408
7552754, 455, 405, 457, 413
7557793, 458, 420, 472, 424
7562830, 481, 426, 468, 417
7567885, 457, 392, 460, 408
7572920, 457, 410, 480, 428
7577829, 476, 418, 473, 397
7582303, 432, 392, 454, 397
7586852, 444, 402, 464, 408
7591899, 471, 418, 478, 429
7596659, 467, 411, 440, 411
7601739, 453, 400, 450, 405
7606816, 461, 419, 474, 422
7611892, 476, 427, 479, 421
7616969, 463, 408, 458, 401
7622044, 454, 415, 470, 413
7626954, 472, 416, 467, 423
7631714, 459, 408, 456, 408
7636597, 453, 407, 457, 413
7641286, 460, 415, 470, 432
7646151, 476, 417, 473, 420
7651005, 465, 400, 448, 401
7656048, 456, 404, 465, 419
7660452, 472, 409, 472, 422
7665328, 457, 406, 464, 376
7670363, 454, 409, 465, 405
7675328, 473, 423, 480, 424
7680366, 468, 417, 471, 401
7685215, 458, 402, 454, 402
7690281, 456, 418, 475, 428
7695096, 477, 428, 476, 413
7700156, 463, 416, 461, 395
7705228, 452, 416, 464, 417
7710284, 465, 430, 479, 418
7715213, 463, 423, 459, 375
7720243, 449, 411, 456, 394
7725235, 458, 424, 481, 391
7729912, 473, 417, 470, 392
7734901, 458, 407, 459, 390
7739814, 462, 409, 468, 419
7744497, 481, 417, 476, 418
7749539, 468, 408, 462, 409
7754577, 464, 414, 468, 418
7759534, 483, 430, 486, 420
7764408, 478, 428, 471, 410
7769326, 461, 419, 456, 402
7774200, 466, 424, 477, 428
7779253, 483, 430, 470, 409
7784312, 460, 418, 444, 397
7789351, 460, 414, 456, 419
7794245, 481, 427, 476, 418
7799283, 463, 412, 448, 374
7804320, 447, 406, 464, 374
7808859, 455, 422, 479, 381
7813723, 461, 413, 461, 386
7818092, 450, 402, 449, 398
7823082, 458, 390, 464, 427
7827967, 479, 404, 480, 420
7832968, 465, 405, 468, 408
7837993, 457, 404, 458, 421
7843035, 468, 411, 448, 426
7848072, 475, 406, 447, 411
7853105, 449, 381, 450, 405
7858046, 463, 406, 476, 422
7863117, 470, 420, 471, 385
7868160, 460, 410, 458, 389
7873199, 466, 421, 475, 418
7878234, 470, 427, 470, 408
7883283, 463, 405, 427, 389
7888319, 450, 404, 440, 411
7893368, 459, 403, 470, 424
7898413, 462, 399, 463, 410
7903455, 445, 397, 454, 420
7908505, 466, 411, 466, 433
7913549, 477, 413, 463, 415
7918467, 458, 401, 451, 404
7923383, 467, 414, 467, 427
7928421, 474, 394, 459, 416
7933456, 430, 370, 448, 405
7938490, 421, 394, 464, 419
7943544, 454, 395, 487, 420
7948447, 465, 396, 464, 408
7953487, 451, 404, 463, 417
7958642, 465, 412, 476, 429
7963739, 472, 416, 459, 409
7968699, 451, 414, 452, 409
7973401, 459, 425, 469, 418
7978085, 463, 426, 465, 389
7983014, 454, 392, 455, 386
7987935, 445, 399, 454, 412
7992653, 461, 417, 465, 431
7997475, 464, 416, 461, 405
8002363, 455, 410, 446, 406
8007429, 458, 393, 444, 430
8012541, 469, 408, 451, 422
8017638, 458, 406, 445, 379
8022711, 462, 415, 464, 409
8027757, 467, 418, 462, 410
8032840, 453, 399, 426, 401
8037904, 446, 404, 424, 415
8042969, 473, 425, 451, 418
8048033, 467, 417, 445, 410
8053098, 454, 409, 454, 418
8058162, 460, 425, 480, 434
8063227, 474, 426, 473, 387
8068274, 463, 414, 450, 389
8073320, 452, 399, 473, 418
8078302, 467, 408, 464, 420
8083303, 451, 385, 459, 410
8088282, 447, 393, 465, 425
8093319, 466, 407, 475, 423
8098363, 461, 409, 458, 407
8103407, 449, 400, 449, 406
8108444, 465, 410, 462, 428
8113480, 464, 391, 453, 416
8118525, 448, 393, 450, 411
8123314, 462, 408, 471, 423
8128090, 469, 420, 475, 414
8132878, 457, 414, 455, 392
8137932, 453, 405, 455, 419
8142849, 472, 417, 465, 426
8147724, 477, 411, 460, 412
8152774, 458, 403, 448, 415
8157811, 474, 414, 471, 423
8162209, 478, 411, 463, 410
8167047, 465, 401, 451, 392
8172099, 455, 407, 456, 419
8176885, 472, 423, 465, 424
8181924, 472, 410, 450, 413
8186765, 450, 406, 451, 414
8191799, 435, 401, 470, 433
8196838, 460, 408, 473, 413
8201879, 460, 409, 458, 402
8206915, 465, 408, 448, 428
8211951, 474, 427, 464, 425
8216988, 462, 410, 447, 403
8222032, 466, 415, 458, 418
8227067, 471, 427, 475, 428
8232106, 459, 417, 458, 413
8237142, 448, 416, 467, 413
8242178, 472, 432, 481, 426
8247225, 476, 426, 461, 380
8252262, 460, 417, 449, 399
8257299, 471, 419, 467, 423
8262226, 475, 423, 464, 412
8267274, 453, 408, 457, 375
8271874, 446, 412, 461, 406
8276908, 464, 432, 475, 421
8281947, 472, 424, 455, 405
8287056, 461, 419, 450, 414
8292090, 463, 419, 448, 398
8297127, 470, 417, 454, 403
8301971, 426, 415, 455, 402
8307006, 453, 420, 469, 426
8312049, 466, 429, 468, 409
8317091, 463, 413, 456, 396
8321629, 448, 411, 468, 407
8326667, 460, 421, 481, 416
8331589, 465, 411, 461, 403
8336663, 452, 403, 454, 410
8341736, 473, 416, 478, 433
8346808, 470, 421, 460, 409
8351879, 460, 407, 456, 403
8356949, 470, 419, 477, 423
8362043, 481, 420, 469, 409
8367096, 465, 411, 454, 402
8372134, 453, 417, 472, 424
8377172, 471, 424, 471, 417
8382241, 459, 417, 458, 401
8387275, 451, 413, 465, 414
8392312, 461, 423, 478, 417
8397349, 462, 412, 456, 402
8402390, 445, 411, 460, 407
8407426, 453, 417, 479, 424
8412460, 472, 423, 473, 408
8417276, 462, 406, 449, 404
8422312, 464, 414, 462, 423
8427190, 482, 420, 478, 426
8432231, 477, 413, 463, 398
8437268, 452, 406, 466, 415
8442304, 472, 421, 471, 428
8447342, 478, 420, 465, 416
8452379, 463, 410, 449, 403
8457417, 462, 425, 474, 419
8462453, 478, 429, 473, 405
8467494, 466, 410, 453, 402
8472529, 463, 406, 461, 413
8477565, 470, 399, 470, 419
8482602, 471, 399, 460, 401
8487637, 453, 399, 456, 415
8492673, 472, 413, 466, 425
8497711, 464, 407, 430, 398
8502759, 444, 404, 447, 411
8507800, 468, 421, 466, 425
8512946, 470, 424, 470, 411
8518028, 460, 415, 461, 400
8523079, 464, 415, 466, 423
8528147, 468, 422, 465, 413
8533215, 453, 416, 455, 403
8538267, 451, 416, 461, 412
8543397, 468, 432, 476, 414
8548464, 474, 424, 462, 404
8553531, 463, 415, 451, 416
8558616, 467, 425, 471, 420
8563715, 473, 420, 458, 398
8568763, 456, 416, 449, 404
8573807, 464, 402, 470, 416
8578850, 477, 402, 446, 400
8583963, 462, 394, 415, 403
8588663, 431, 412, 451, 413
8593668, 463, 429, 469, 419
8598534, 458, 413, 455, 396
8603644, 441, 408, 453, 381
8608570, 455, 417, 473, 413
8613643, 465, 414, 468, 408
8618717, 452, 412, 461, 408
8623685, 453, 422, 472, 431
8628721, 466, 426, 465, 411
8633787, 450, 418, 449, 403
8638829, 458, 418, 458, 417
8643862, 466, 433, 464, 422
8648608, 468, 425, 456, 376
8653535, 455, 411, 450, 407
8658364, 463, 424, 476, 423
8663380, 467, 425, 473, 404
8668508, 448, 415, 455, 395
8673595, 462, 421, 472, 423
8678496, 479, 423, 477, 416
8683569, 463, 403, 449, 409
8688285, 449, 406, 460, 417
8693329, 464, 398, 467, 419
8697903, 469, 393, 458, 405
8702883, 451, 398, 464, 406
8707919, 460, 420, 484, 415
8712902, 480, 425, 463, 407
8717755, 466, 406, 451, 396
8722799, 433, 409, 470, 422
8727708, 461, 422, 482, 417
8732743, 455, 419, 464, 401
8737778, 451, 411, 468, 415
8742687, 469, 423, 482, 426
8747724, 462, 410, 436, 381
8752182, 452, 402, 447, 391
8757213, 467, 418, 470, 412
8762257, 477, 422, 440, 402
8767310, 455, 408, 446, 370
8772387, 455, 418, 472, 399
8777511, 472, 429, 479, 409
8782535, 468, 419, 459, 399
8787574, 459, 412, 465, 408
8792441, 471, 426, 472, 414
8796931, 463, 424, 454, 409
8801391, 449, 411, 421, 404
8806257, 452, 424, 455, 427
8811298, 476, 431, 462, 421
8816355, 465, 413, 441, 405
8821391, 455, 410, 460, 421
8826428, 474, 429, 477, 421
8831470, 474, 418, 462, 403
8836335, 461, 410, 432, 407
8841382, 465, 426, 454, 425
8845966, 471, 428, 460, 411
8850622, 454, 411, 450, 404
8855005, 452, 403, 431, 423
8859386, 461, 413, 458, 431
8863890, 460, 419, 458, 403
8868933, 451, 408, 455, 399
8873971, 460, 413, 475, 419
8878883, 480, 417, 466, 408
8883720, 454, 405, 426, 403
8888288, 457, 415, 457, 417
8893035, 469, 422, 467, 426
8897545, 465, 418, 449, 416
8902091, 446, 404, 449, 412
8907148, 464, 421, 464, 419
8911796, 476, 422, 455, 415
8916417, 461, 390, 447, 402
8921052, 452, 402, 453, 418
8925659, 476, 423, 466, 420
8930543, 478, 416, 464, 408
8935547, 462, 406, 443, 411
8940162, 450, 397, 467, 423
8945160, 476, 407, 463, 411
8950202, 452, 396, 445, 401
8955243, 445, 401, 460, 418
8960224, 468, 415, 477, 414
8965194, 469, 408, 453, 393
8970237, 450, 412, 460, 403
8975274, 472, 429, 479, 416
8980311, 475, 417, 463, 409
8985357, 456, 411, 455, 405
8990389, 466, 416, 471, 424
8995430, 467, 414, 465, 418
9000483, 453, 410, 444, 377
9005305, 448, 394, 466, 403
9010007, 471, 411, 447, 409
9014876, 468, 407, 448, 403
9019728, 463, 406, 454, 404
9024510, 465, 424, 478, 416
9029395, 470, 429, 472, 401
9034265, 462, 409, 460, 395
9039302, 463, 417, 474, 415
9044363, 473, 419, 480, 413
9049365, 456, 408, 463, 397
9054279, 455, 407, 456, 412
9058794, 463, 419, 464, 432
9063662, 464, 416, 468, 406
9068707, 460, 411, 459, 411
9073582, 467, 413, 467, 430
9078632, 473, 421, 464, 422
9083511, 453, 408, 441, 377
9088550, 448, 409, 455, 405
9093240, 472, 420, 471, 416
9098120, 473, 417, 454, 407
9103040, 453, 399, 428, 408
9108042, 463, 421, 466, 429
9112852, 470, 419, 469, 412
9117892, 463, 405, 456, 408
9122735, 454, 407, 472, 430
9127458, 463, 414, 479, 429
9132075, 456, 412, 459, 409
9136791, 452, 411, 456, 417
9141306, 467, 422, 472, 421
9146070, 466, 399, 458, 406
9150996, 446, 389, 440, 406
9155423, 423, 403, 453, 423
9160036, 460, 417, 462, 427
9164804, 456, 411, 457, 408
9169737, 451, 407, 453, 417
9174792, 467, 418, 472, 422
9179513, 465, 423, 467, 383
9184397, 454, 409, 448, 385
9189402, 464, 410, 458, 411
9193743, 478, 428, 474, 417
9198302, 473, 422, 462, 403
9203309, 456, 410, 432, 404
9207723, 458, 428, 465, 428
9212170, 475, 430, 461, 418
9216882, 458, 419, 442, 411
9221387, 453, 410, 446, 421
9226061, 468, 420, 472, 423
9231035, 472, 420, 452, 401
9236052, 457, 412, 426, 407
9240838, 467, 422, 448, 424
9245331, 464, 421, 450, 420
9250246, 463, 409, 449, 408
9255092, 452, 411, 453, 427
9259640, 475, 418, 469, 424
9264191, 463, 416, 452, 412
9268668, 440, 402, 452, 401
9273270, 447, 418, 473, 421
9278195, 471, 425, 474, 415
9283101, 460, 412, 455, 396
9287799, 445, 406, 461, 418
9292647, 465, 423, 470, 433
9296885, 461, 414, 465, 407
9301944, 447, 408, 448, 399
9306574, 458, 425, 473, 420
9311618, 480, 429, 472, 421
9315986, 464, 413, 459, 398
9320847, 458, 403, 460, 419
9325729, 444, 418, 482, 420
9330674, 469, 420, 471, 412
9335727, 449, 413, 459, 416
9340541, 459, 421, 469, 432
9345584, 466, 415, 460, 409
9350165, 429, 410, 447, 399
9354612, 429, 391, 454, 408
9359457, 464, 411, 477, 430
9364501, 473, 409, 461, 414
9369542, 455, 404, 461, 420
9374096, 463, 417, 469, 435
9379151, 470, 421, 464, 417
9384188, 459, 409, 455, 403
9389223, 458, 413, 467, 415
9394261, 478, 417, 467, 413
9399302, 456, 404, 454, 403
9404346, 446, 412, 462, 413
9409387, 470, 406, 483, 424
9414421, 477, 406, 461, 410
9419085, 454, 397, 453, 417
9423746, 466, 402, 462, 431
9428756, 445, 395, 471, 415
9433828, 445, 388, 453, 404
9438903, 453, 405, 463, 428
9443978, 467, 416, 476, 430
9449051, 465, 411, 449, 412
9454123, 451, 409, 462, 423
9459196, 464, 424, 467, 431
9464269, 473, 412, 454, 405
9469340, 457, 401, 458, 412
9474411, 469, 415, 468, 431
9479483, 475, 417, 470, 408
9484554, 458, 402, 461, 406
9489625, 455, 416, 473, 432
9494696, 472, 425, 473, 425
9499766, 467, 414, 451, 404
9504838, 456, 418, 455, 425
9509696, 471, 404, 470, 419
9514768, 466, 406, 451, 405
9519841, 457, 406, 451, 406
9524783, 469, 424, 476, 430
9529831, 477, 427, 469, 405
9534653, 455, 408, 453, 397
9539489, 455, 420, 469, 418
9544535, 467, 429, 467, 390
9549584, 451, 415, 451, 393
9554458, 447, 413, 456, 408
9559487, 465, 423, 477, 411
9564523, 462, 414, 460, 398
9569563, 442, 413, 450, 379
9574602, 467, 424, 477, 408
9579575, 473, 424, 464, 407
9584610, 453, 416, 459, 398
9589696, 457, 423, 474, 427
9594734, 469, 424, 476, 412
9599575, 451, 405, 450, 405
9604613, 450, 408, 468, 421
9609468, 474, 425, 480, 421
9614507, 475, 409, 456, 404
9619547, 455, 406, 455, 417
9624587, 459, 413, 474, 429
9629580, 465, 411, 460, 415
9634679, 457, 402, 456, 402
9639648, 456, 418, 480, 429
9644704, 480, 430, 482, 416
9649768, 471, 420, 464, 407
9654846, 461, 422, 473, 421
9659893, 475, 431, 480, 422
9664822, 463, 419, 463, 408
9669901, 451, 408, 458, 406
9674951, 465, 424, 468, 396
9680023, 473, 427, 466, 399
9685067, 448, 407, 458, 402
9689920, 451, 413, 461, 429
9694663, 465, 418, 469, 416
9699755, 452, 415, 447, 406
9704507, 456, 410, 454, 421
9709068, 476, 418, 475, 429
9713647, 476, 416, 456, 407
9718416, 460, 398, 435, 399
9723221, 451, 391, 467, 418
9728078, 468, 408, 471, 418
9732899, 460, 395, 449, 374
9737936, 459, 402, 457, 412
9742980, 471, 419, 473, 426
9748020, 463, 411, 451, 409
9753093, 448, 404, 448, 416
9758135, 472, 414, 480, 434
9762826, 478, 420, 474, 405
9767870, 465, 409, 449, 404
9772920, 460, 418, 472, 426
9777838, 481, 426, 467, 412
9782885, 465, 418, 450, 403
9787786, 452, 418, 464, 419
9792619, 460, 424, 480, 420
9797433, 472, 424, 464, 396
9802493, 462, 409, 464, 413
9807538, 472, 420, 480, 429
9812191, 482, 425, 476, 411
9817235, 467, 411, 459, 403
9822279, 455, 412, 472, 419
9827317, 477, 425, 481, 419
9832353, 463, 412, 454, 402
9837415, 453, 412, 447, 418
9842482, 460, 405, 464, 419
9847451, 468, 399, 448, 401
9852486, 450, 400, 459, 406
9857523, 469, 418, 473, 430
9862556, 478, 421, 467, 420
9867590, 451, 409, 449, 412
9872634, 460, 414, 472, 429
9877673, 483, 423, 476, 422
9882669, 463, 414, 456, 410
9887708, 448, 389, 467, 414
9892746, 463, 409, 481, 427
9897782, 465, 407, 460, 410
9902823, 454, 401, 464, 418
9907864, 472, 418, 486, 436
9912904, 482, 421, 464, 420
9917939, 464, 408, 459, 402
9922952, 458, 420, 473, 429
9927840, 467, 428, 472, 421
9932900, 455, 417, 458, 401
9937742, 444, 414, 453, 415
9942680, 470, 421, 471, 418
9947720, 475, 415, 458, 407
9952759, 449, 402, 448, 405
9957763, 467, 410, 474, 422
9962736, 473, 418, 470, 381
9967719, 452, 411, 460, 393
9972028, 454, 411, 470, 409
9976638, 473, 421, 470, 418
9981581, 463, 415, 460, 410
9986189, 445, 409, 463, 383
9990901, 454, 421, 473, 415
9995586, 469, 416, 464, 402
10000575, 451, 410, 456, 392
10005329, 445, 411, 472, 422
10010098, 469, 422, 486, 431
10015054, 466, 414, 467, 402
10020057, 446, 415, 460, 418
10024895, 469, 420, 474, 433
10029568, 471, 415, 471, 414
10034616, 454, 403, 450, 412
10039383, 459, 409, 469, 420
10044426, 478, 410, 468, 420
10049224, 432, 387, 459, 411
10054187, 450, 394, 465, 419
10058750, 473, 415, 473, 420
10063615, 466, 411, 456, 409
10068442, 444, 406, 457, 402
10072793, 447, 418, 471, 416
10077833, 468, 420, 469, 420
10082775, 465, 416, 456, 407
10087705, 457, 417, 468, 422
10092779, 472, 429, 471, 430
10097661, 472, 417, 456, 412
10102560, 446, 408, 449, 417
10107599, 455, 423, 464, 424
10112559, 464, 421, 468, 404
10117631, 460, 413, 459, 405
10122688, 468, 412, 470, 417
10127733, 477, 411, 447, 410
10132770, 468, 403, 445, 404
10137729, 451, 407, 453, 421
10142628, 466, 421, 466, 428
10147339, 469, 419, 461, 412
10152183, 450, 410, 449, 412
10157220, 461, 400, 463, 432
10162256, 477, 404, 464, 424
10167291, 462, 404, 458, 417
10171988, 463, 402, 465, 421
10176866, 465, 395, 470, 422
10181893, 467, 397, 461, 396
10186917, 455, 393, 456, 414
10191813, 463, 411, 467, 428
10196666, 467, 412, 458, 403
10201175, 450, 410, 460, 406
10206089, 462, 421, 473, 429
10211134, 478, 417, 472, 418
10216188, 436, 409, 459, 409
10221231, 447, 410, 465, 420
10226267, 474, 420, 472, 431
10231055, 439, 409, 463, 402
10235730, 434, 405, 454, 412
10240655, 462, 412, 472, 420
10245103, 462, 415, 475, 421
10250149, 461, 400, 453, 404
10255164, 459, 411, 461, 424
10260145, 478, 416, 469, 432
10265182, 441, 417, 452, 414
10269974, 440, 411, 451, 421
10274737, 465, 416, 465, 424
10279138, 465, 419, 455, 418
10283515, 449, 410, 443, 377
10288512, 445, 393, 456, 405
10293138, 464, 415, 471, 413
10297992, 470, 407, 458, 396
10302757, 457, 398, 449, 410
10307453, 468, 415, 465, 416
10312496, 466, 411, 460, 411
10317545, 426, 403, 459, 403
10322642, 451, 408, 472, 417
10327617, 463, 415, 482, 415
10332703, 459, 402, 462, 394
10337769, 453, 407, 461, 419
10342817, 469, 421, 470, 420
10347644, 462, 414, 462, 408
10352586, 443, 414, 461, 414
10357635, 466, 426, 476, 433
10362196, 463, 427, 459, 414
10366880, 446, 407, 443, 408
10371288, 440, 416, 454, 431
10376326, 474, 433, 476, 422
10381373, 473, 414, 453, 407
10386288, 456, 417, 453, 413
10391336, 471, 419, 471, 421
10396380, 471, 416, 459, 404
10401420, 451, 413, 452, 408
10406456, 459, 420, 478, 418
10411532, 477, 425, 479, 404
10416573, 458, 414, 448, 405
10421616, 455, 395, 468, 423
10426684, 470, 410, 469, 422
10431723, 471, 407, 454, 408
10436759, 453, 407, 463, 423
10441794, 470, 420, 472, 424
10446833, 479, 410, 467, 414
10451870, 453, 408, 459, 415
10456905, 462, 422, 471, 424
10461949, 480, 429, 462, 417
10466984, 466, 413, 455, 408
10472019, 467, 409, 462, 429
10477058, 473, 419, 465, 427
10482075, 458, 408, 448, 400
10487128, 457, 412, 464, 417
10492167, 472, 432, 482, 426
10497207, 474, 425, 468, 415
10502248, 447, 410, 461, 413
10507303, 463, 416, 481, 430
10512413, 474, 425, 465, 407
10517453, 464, 414, 457, 398
10522489, 470, 422, 462, 424
10527529, 477, 407, 475, 422
10532565, 469, 401, 453, 407
10537606, 453, 404, 462, 423
10542580, 469, 413, 482, 424
10547618, 467, 411, 468, 398
10552653, 452, 407, 469, 411
10557689, 473, 420, 483, 421
10562802, 474, 422, 462, 405
10567893, 443, 387, 447, 405
10573006, 455, 403, 467, 417
10577676, 469, 410, 468, 414
10582620, 459, 409, 457, 406
10587722, 455, 410, 467, 392
10592645, 467, 424, 472, 417
10597019, 461, 425, 464, 397
10602071, 452, 414, 461, 406
10606951, 466, 424, 473, 396
10611622, 475, 429, 464, 374
10616660, 457, 410, 444, 377
10621696, 456, 419, 468, 405
10626730, 467, 424, 479, 412
10631762, 460, 416, 455, 402
10636819, 444, 408, 455, 387
10641887, 463, 400, 473, 405
10646956, 468, 410, 459, 396
10652023, 457, 407, 448, 406
10657090, 469, 417, 478, 430
10662134, 479, 421, 475, 422
10667177, 464, 408, 455, 411
10672221, 452, 407, 465, 421
10677283, 463, 415, 467, 413
10682354, 461, 408, 449, 395
10687426, 454, 406, 458, 412
10692497, 445, 430, 479, 426
10697568, 459, 422, 458, 398
10702639, 448, 414, 450, 414
10707710, 460, 431, 476, 433
10712781, 473, 428, 470, 411
10717830, 451, 414, 430, 402
10722914, 458, 421, 434, 413
10727962, 468, 429, 447, 405
10732999, 461, 411, 438, 394
10738042, 450, 414, 463, 388
10743079, 475, 429, 474, 404
10748116, 469, 417, 463, 399
10753159, 456, 405, 461, 411
10758195, 461, 417, 473, 427
10763032, 467, 412, 463, 405
10767830, 449, 399, 449, 401
10772867, 462, 408, 467, 421
10777932, 449, 425, 470, 409
10782969, 450, 414, 459, 403
10787878, 458, 419, 469, 420
10792916, 479, 427, 470, 426
10797780, 467, 413, 430, 410
10802850, 451, 412, 451, 406
10807939, 470, 428, 469, 414
10812991, 477, 416, 458, 376
10818026, 459, 411, 442, 395
10823062, 456, 414, 458, 421
10828172, 461, 411, 439, 412
10833208, 453, 407, 435, 405
10838069, 450, 415, 453, 415
10843128, 475, 423, 464, 420
10848163, 467, 415, 459, 406
10853199, 457, 408, 460, 407
10858234, 467, 425, 478, 417
10863277, 464, 418, 460, 399
10868317, 458, 407, 457, 399
10873353, 436, 421, 474, 420
10878391, 465, 419, 463, 405
10883427, 454, 399, 445, 393
10888462, 426, 409, 461, 410
10893499, 470, 424, 467, 420
10898542, 465, 415, 455, 376
10903578, 447, 409, 453, 376
10908640, 464, 420, 465, 412
10913679, 471, 409, 454, 404
10918717, 450, 407, 458, 416
10923751, 466, 422, 479, 422
10928790, 482, 426, 465, 415
10933827, 463, 389, 447, 406
10938864, 459, 401, 465, 428
10943907, 477, 415, 474, 429
10948940, 468, 405, 459, 408
10953975, 463, 403, 462, 422
10959008, 476, 421, 478, 430
10964041, 473, 406, 433, 414
10969073, 455, 399, 447, 420
10974106, 463, 413, 468, 422
10979140, 468, 414, 470, 415
10984173, 458, 404, 430, 405
10989208, 466, 415, 432, 418
10994244, 483, 422, 442, 405
10999280, 459, 387, 417, 397
11004316, 456, 402, 441, 415
11009352, 475, 412, 461, 423
11014387, 470, 410, 447, 400
11019527, 444, 388, 455, 418
11024566, 469, 409, 473, 432
11029688, 471, 413, 462, 419
11034737, 448, 399, 447, 406
11039774, 453, 410, 464, 429
11044811, 475, 422, 464, 419
11049847, 452, 392, 457, 398
11054882, 459, 405, 463, 422
11059923, 474, 414, 470, 414
11064959, 470, 402, 446, 405
11069994, 461, 397, 447, 408
11075032, 473, 410, 469, 427
11080069, 475, 413, 460, 408
11085101, 452, 406, 460, 414
11090134, 470, 423, 482, 435
11095170, 480, 419, 476, 414
11100210, 465, 408, 461, 397
11105243, 461, 407, 473, 413
11110280, 473, 417, 472, 419
11115316, 464, 408, 460, 402
11120355, 448, 414, 470, 418
11125390, 471, 425, 482, 399
11130446, 463, 420, 469, 391
11135485, 452, 414, 457, 402
11140521, 467, 423, 468, 395
11145391, 469, 424, 470, 391
11150312, 454, 414, 428, 397
11155350, 462, 424, 462, 414
11160392, 481, 424, 474, 423
11165427, 461, 408, 461, 402
11170462, 450, 410, 461, 421
11175507, 462, 422, 476, 422
11180545, 440, 422, 468, 411
11185581, 445, 418, 466, 404
11190617, 461, 423, 451, 432
11195655, 468, 428, 453, 418
11200691, 459, 420, 449, 414
11205726, 457, 426, 458, 420
11210764, 469, 410, 477, 422
11215800, 460, 407, 458, 410
11220731, 446, 409, 471, 425
11225764, 472, 418, 473, 428
11230801, 460, 408, 454, 399
11235868, 456, 410, 460, 403
11240903, 474, 424, 481, 417
11245943, 484, 425, 462, 402
11250977, 465, 408, 457, 407
11256027, 465, 419, 465, 422
11261064, 474, 426, 461, 406
11266098, 462, 393, 445, 403
11271131, 461, 397, 463, 413
11276189, 472, 410, 469, 419
11281226, 461, 409, 450, 396
11286260, 448, 411, 462, 414
11291293, 471, 418, 451, 432
11296326, 478, 424, 455, 415
11301408, 463, 413, 444, 407
11306443, 461, 423, 471, 419
11311602, 468, 423, 470, 407
11316685, 464, 411, 459, 402
11321624, 465, 412, 465, 426
11326711, 472, 429, 472, 396
11331853, 468, 415, 462, 399
11337004, 462, 413, 471, 415
11342158, 465, 419, 478, 419
11347250, 467, 416, 468, 404
11352339, 451, 411, 464, 416
11357439, 463, 424, 481, 419
11362375, 469, 424, 467, 410
11367410, 449, 414, 442, 408
11372444, 450, 393, 455, 431
11377482, 445, 409, 469, 421
11382517, 453, 405, 449, 401
11387552, 446, 406, 451, 416
11392587, 472, 399, 469, 425
11397623, 472, 400, 460, 401
11402658, 461, 400, 451, 404
11407694, 466, 419, 467, 425
11412728, 477, 413, 456, 413
11417765, 457, 403, 455, 403
11422806, 464, 413, 469, 418
11427840, 485, 413, 468, 419
11432877, 460, 404, 458, 407
11437912, 462, 409, 472, 413
11442946, 468, 425, 486, 421
11447980, 467, 414, 469, 397
11453015, 455, 410, 457, 414
11458049, 463, 417, 472, 431
11463083, 469, 412, 463, 410
11468189, 452, 399, 455, 381
11473223, 465, 407, 467, 408
11478257, 470, 411, 471, 410
11483295, 450, 403, 450, 404
11488329, 458, 404, 440, 413
11493361, 470, 427, 467, 416
11498395, 465, 408, 452, 395
11503432, 451, 413, 463, 414
11508466, 471, 421, 470, 429
11513499, 465, 417, 451, 404
11518538, 449, 409, 450, 412
11523255, 461, 416, 472, 430
11528058, 468, 423, 461, 409
11532842, 449, 411, 445, 403
11537477, 442, 407, 457, 419
11542524, 459, 418, 471, 422
11547335, 455, 407, 462, 397
11552318, 451, 403, 461, 406
11557366, 466, 418, 480, 432
11562409, 480, 422, 476, 419
11567459, 468, 413, 463, 406
11572276, 467, 416, 471, 414
11576685, 471, 426, 469, 424
11581440, 458, 420, 453, 396
11586475, 456, 418, 445, 414
11591511, 467, 406, 467, 397
11596580, 474, 413, 460, 395
11601651, 461, 399, 447, 397
11606723, 470, 417, 467, 427
11611777, 483, 415, 461, 413
11616825, 457, 401, 445, 403
11621926, 452, 406, 463, 414
11626974, 462, 410, 465, 389
11631911, 448, 401, 450, 384
11636957, 453, 401, 451, 413
11642002, 471, 413, 470, 417
11647044, 464, 408, 466, 405
11652080, 459, 409, 462, 405
11657116, 471, 417, 478, 419
11662151, 467, 414, 461, 410
11667187, 451, 399, 448, 409
11672223, 461, 410, 472, 424
11677264, 470, 426, 479, 424
11682300, 465, 416, 457, 409
11687336, 457, 415, 460, 416
11692372, 470, 425, 477, 431
11697408, 471, 414, 461, 402
11702444, 455, 412, 460, 383
11707483, 468, 426, 480, 408
11712518, 476, 425, 469, 409
11717554, 448, 409, 456, 404
11722595, 466, 416, 476, 429
11727632, 479, 417, 480, 414
11732690, 461, 400, 462, 391
11737763, 451, 406, 445, 415
11742835, 470, 428, 467, 415
11747917, 470, 423, 449, 397
11752956, 458, 414, 448, 411
11757994, 472, 405, 477, 426
11763031, 477, 404, 464, 414
11768074, 457, 393, 460, 414
11773110, 462, 408, 478, 435
11778178, 469, 419, 476, 414
11783226, 454, 404, 461, 376
11788270, 448, 416, 475, 416
11793312, 473, 426, 475, 392
11798355, 467, 417, 452, 395
11803397, 451, 411, 463, 411
11808439, 464, 424, 480, 418
11813482, 478, 423, 467, 410
11818557, 460, 414, 451, 403
11823687, 469, 402, 475, 417
11828730, 478, 414, 464, 405
11833773, 466, 406, 454, 396
11838837, 454, 406, 456, 424
11843880, 462, 397, 472, 424
11848944, 451, 397, 460, 409
11853986, 452, 398, 471, 422
11859029, 465, 418, 477, 430
11864070, 465, 414, 460, 379
11869107, 448, 413, 462, 397
11873997, 467, 422, 481, 414
11879056, 465, 425, 466, 378
11884124, 451, 410, 458, 395
11889159, 452, 410, 465, 416
11894202, 476, 422, 469, 419
11899239, 454, 414, 451, 400
11904275, 457, 417, 457, 423
11909309, 467, 425, 474, 419
11914344, 460, 420, 463, 403
11919383, 458, 413, 458, 412
11924420, 474, 425, 466, 430
11929454, 482, 423, 466, 417
11934316, 463, 410, 460, 408
11939352, 466, 422, 481, 429
11944386, 482, 428, 467, 413
11949424, 465, 406, 446, 401
11954459, 449, 390, 469, 419
11959494, 469, 411, 474, 423
11964530, 462, 406, 454, 404
11969567, 460, 412, 461, 422
11974601, 477, 425, 479, 433
11979538, 477, 420, 465, 412
11984499, 451, 412, 453, 410
11989421, 463, 424, 464, 430
11994041, 466, 423, 473, 392
11998881, 462, 411, 451, 396
12003854, 459, 412, 459, 419
12008890, 474, 418, 478, 421
12013925, 476, 418, 455, 401
12018944, 464, 414, 451, 408
12023982, 475, 416, 468, 429
12029018, 476, 423, 470, 407
12034059, 463, 411, 460, 399
12039094, 457, 416, 477, 415
12044129, 468, 427, 474, 413
12049167, 463, 410, 458, 395
12054204, 450, 408, 473, 413
12059240, 480, 426, 473, 423
12064282, 477, 420, 459, 402
12069319, 450, 416, 453, 383
12074353, 468, 420, 473, 406
12079389, 477, 421, 461, 405
12084424, 459, 409, 447, 400
12089458, 462, 420, 467, 427
12094493, 481, 426, 469, 418
12099533, 456, 419, 452, 408
12104569, 461, 417, 456, 426
12109606, 470, 426, 476, 427
12114473, 469, 407, 451, 406
12119508, 458, 405, 453, 420
12124409, 477, 417, 468, 434
12129314, 478, 413, 464, 419
12133926, 449, 404, 457, 405
12138600, 453, 415, 465, 419
12143614, 474, 426, 475, 414
12148616, 467, 417, 453, 404
12153727, 454, 410, 454, 409
12158801, 463, 415, 446, 422
12163875, 466, 416, 453, 410
12168949, 457, 413, 451, 417
12174022, 472, 424, 472, 429
12179095, 479, 425, 468, 408
12184156, 456, 407, 458, 407
12189192, 452, 411, 445, 421
12194049, 475, 417, 463, 415
12199090, 465, 409, 447, 400
12204126, 455, 410, 456, 409
12209170, 471, 426, 463, 414
12214208, 464, 413, 449, 405
12219246, 458, 405, 454, 407
12224286, 474, 414, 477, 425
12229324, 466, 407, 464, 408
12234361, 446, 399, 461, 410
12239397, 430, 404, 471, 431
12244432, 437, 423, 469, 412
12249473, 439, 407, 447, 407
12254508, 445, 409, 464, 420
12259542, 468, 422, 464, 416
12264579, 466, 407, 447, 404
12269617, 460, 403, 451, 420
12274652, 479, 418, 469, 433
12279498, 469, 418, 456, 409
12284537, 451, 410, 444, 402
12289572, 457, 423, 471, 428
12294608, 467, 422, 465, 390
12299650, 449, 413, 453, 364
12304687, 446, 415, 462, 408
12309726, 462, 423, 479, 419
12314762, 465, 415, 455, 405
12319799, 457, 410, 461, 414
12324838, 472, 426, 482, 417
12329874, 476, 426, 466, 406
12334912, 455, 402, 432, 412
12339953, 471, 422, 469, 433
12344995, 480, 431, 467, 416
12350035, 465, 407, 451, 409
12355072, 456, 414, 464, 423
12360038, 468, 430, 476, 421
12365136, 466, 422, 461, 405
12370185, 463, 420, 462, 412
12375267, 474, 433, 477, 427
12380307, 473, 417, 456, 407
12385346, 458, 405, 447, 412
12390384, 460, 423, 472, 428
12395417, 478, 411, 457, 417
12400452, 432, 408, 453, 403
12405485, 443, 419, 467, 422
12410518, 460, 419, 465, 389
12415557, 459, 410, 453, 388
12420596, 450, 413, 455, 416
12425629, 460, 422, 468, 416
12430744, 466, 410, 455, 393
12435787, 453, 385, 454, 405
12440824, 467, 405, 480, 419
12445901, 476, 409, 474, 404
12450945, 463, 397, 461, 407
12455984, 458, 406, 472, 428
12460930, 479, 419, 474, 423
12465977, 459, 405, 460, 408
12470638, 448, 405, 472, 412
12475674, 475, 421, 481, 424
12480732, 466, 413, 464, 417
12485777, 456, 406, 454, 420
12490813, 477, 423, 476, 422
12495847, 473, 420, 468, 401
12500949, 455, 403, 449, 395
12506001, 462, 412, 471, 421
12511048, 481, 420, 473, 414
12516096, 458, 408, 457, 396
12521145, 430, 417, 469, 425
12526182, 455, 428, 480, 417
12531220, 453, 420, 452, 403
12536260, 448, 416, 460, 410
12541296, 440, 435, 478, 431
12546331, 465, 423, 469, 410
12551366, 450, 406, 456, 381
12556405, 466, 410, 475, 408
12561445, 466, 411, 465, 411
12566481, 461, 400, 456, 404
12571529, 462, 412, 476, 426
12576563, 482, 420, 468, 427
12581596, 442, 419, 459, 406
12586629, 449, 414, 456, 420
12591664, 467, 420, 468, 431
12596700, 469, 423, 463, 411
12601736, 456, 409, 457, 412
12606772, 470, 420, 471, 433
12611808, 480, 417, 464, 419
12616844, 467, 402, 455, 403
12621882, 457, 404, 466, 424
12626918, 477, 420, 466, 424
12631795, 462, 412, 456, 409
12636834, 446, 414, 459, 421
12641871, 455, 405, 473, 427
12646904, 462, 405, 458, 410
12651938, 455, 399, 462, 416
12656976, 468, 414, 480, 437
12662012, 467, 422, 475, 413
12667047, 454, 400, 453, 407
12672088, 451, 406, 472, 427
12677130, 468, 420, 467, 418
12682170, 463, 403, 447, 408
12687208, 452, 404, 459, 411
12692245, 477, 424, 475, 422
12697278, 471, 417, 459, 396
12702311, 452, 412, 457, 412
12707351, 472, 426, 465, 430
12712393, 477, 400, 460, 385
12717429, 457, 391, 457, 394
12722464, 460, 405, 471, 392
12727498, 483, 418, 474, 407
12732538, 468, 414, 461, 402
12737613, 466, 418, 464, 422
12742676, 485, 427, 465, 396
12747716, 464, 415, 457, 384
12752764, 459, 409, 454, 408
12757873, 473, 417, 466, 429
12762909, 473, 411, 451, 411
12767945, 456, 406, 449, 410
12773092, 472, 412, 468, 433
12778140, 485, 412, 472, 413
12783069, 461, 407, 460, 398
12788112, 450, 410, 480, 392
12793147, 477, 423, 483, 411
12798182, 459, 409, 462, 393
12803220, 452, 401, 455, 410
12808255, 461, 418, 475, 425
12813290, 471, 418, 460, 407
12818326, 454, 411, 462, 406
12823368, 457, 420, 481, 430
12828404, 466, 420, 474, 422
12833440, 427, 416, 463, 411
12838476, 449, 423, 467, 426
12843512, 466, 425, 469, 413
12848552, 462, 414, 449, 397
12853152, 456, 415, 458, 408
12857991, 473, 428, 480, 430
12863027, 466, 427, 469, 381
12868062, 453, 412, 451, 393
12873123, 461, 414, 466, 415
12878155, 472, 421, 457, 403
12883193, 463, 411, 451, 396
12888235, 453, 413, 460, 411
12893271, 468, 421, 463, 417
12898305, 466, 403, 447, 394
12903338, 425, 406, 461, 385
12908373, 462, 427, 477, 413
12913409, 471, 414, 454, 402
12918444, 454, 402, 457, 411
12923481, 459, 420, 474, 428
12928516, 468, 426, 472, 417
12933362, 462, 418, 458, 402
12938399, 463, 414, 474, 426
12943433, 476, 417, 482, 425
12948311, 466, 408, 455, 406
12953346, 463, 411, 462, 421
12958382, 475, 421, 481, 427
12963417, 467, 411, 462, 406
12968452, 450, 404, 430, 413
12973258, 469, 423, 470, 427
12978295, 478, 420, 471, 407
12983332, 452, 415, 458, 396
12988366, 462, 417, 474, 410
12993410, 476, 416, 450, 403
12998426, 458, 410, 421, 395
13003461, 459, 418, 447, 408
13008504, 468, 430, 458, 424
13013436, 465, 402, 458, 414
13018486, 451, 402, 447, 416
13023535, 464, 412, 471, 433
13028583, 480, 416, 462, 418
13033706, 453, 402, 458, 413
13038773, 462, 417, 463, 422
13043840, 481, 417, 464, 420
13048907, 460, 404, 445, 407
13053974, 464, 413, 456, 421
13059040, 479, 423, 474, 418
13064107, 470, 409, 433, 405
13069174, 460, 411, 446, 412
13074301, 478, 422, 476, 429
13079348, 482, 420, 467, 412
13084393, 453, 410, 450, 414
13089501, 456, 401, 476, 435
13094544, 476, 408, 476, 413
13099586, 462, 393, 451, 404
13104645, 454, 404, 462, 427
13109706, 467, 421, 478, 420
13114754, 459, 408, 465, 406
13119804, 447, 407, 462, 423
13124926, 462, 424, 482, 428
13129994, 473, 418, 448, 412
13134901, 444, 386, 445, 405
13139934, 456, 414, 472, 419
13145018, 477, 421, 470, 411
13150087, 454, 407, 460, 400
13155189, 450, 414, 476, 430
13160038, 474, 416, 482, 395
13165081, 467, 409, 463, 385
13170169, 456, 411, 466, 409
13175339, 477, 420, 479, 422
13180408, 470, 407, 456, 376
13185498, 459, 402, 458, 403
13190587, 466, 411, 482, 416
13195657, 478, 414, 462, 412
13200726, 465, 409, 458, 409
13205815, 464, 421, 478, 427
13210884, 480, 422, 475, 414
13215953, 464, 404, 460, 374
13221023, 464, 415, 474, 398
13226093, 479, 417, 451, 417
13231180, 462, 407, 443, 399
13236230, 456, 406, 443, 407
13241272, 461, 401, 473, 421
13246306, 468, 407, 454, 401
13251339, 457, 398, 447, 400
13256379, 468, 417, 464, 427
13261417, 482, 421, 457, 407
13266483, 466, 407, 449, 401
13271519, 466, 412, 465, 416
13276572, 486, 425, 470, 422
13281608, 473, 414, 458, 393
13286678, 456, 413, 436, 411
13291725, 477, 421, 457, 422
13296771, 467, 414, 446, 407
13301842, 444, 391, 456, 410
13306890, 469, 404, 468, 418
13311960, 478, 416, 470, 379
13317008, 462, 410, 458, 383
13322104, 467, 412, 477, 416
13327149, 481, 422, 470, 418
13332312, 463, 402, 448, 407
13337393, 457, 413, 471, 417
13342461, 469, 426, 471, 420
13347349, 468, 418, 456, 407
13352416, 446, 410, 464, 416
13357482, 469, 414, 483, 430
13362548, 473, 407, 465, 403
13367630, 449, 397, 450, 403
13372714, 459, 414, 476, 424
13377780, 473, 422, 465, 418
13382829, 458, 411, 447, 410
13387992, 447, 414, 461, 429
13393039, 468, 403, 467, 423
13398082, 472, 400, 453, 404
13403139, 462, 408, 457, 418
13408200, 481, 426, 470, 431
13413259, 475, 422, 463, 403
13418326, 449, 415, 455, 404
13423398, 462, 426, 469, 428
13428450, 476, 420, 458, 414
13433535, 459, 397, 424, 398
13438621, 466, 412, 451, 424
13443673, 485, 425, 464, 421
13448709, 464, 415, 456, 403
13453695, 461, 409, 467, 413
13458732, 471, 415, 475, 421
13463546, 462, 411, 458, 407
13468585, 456, 404, 463, 410
13473626, 471, 417, 472, 418
13478677, 468, 414, 470, 412
13483596, 446, 404, 459, 408
13488683, 432, 424, 473, 428
13493754, 468, 430, 468, 423
13498848, 446, 399, 460, 406
13503919, 459, 405, 472, 426
13508958, 468, 422, 482, 398
13513992, 466, 412, 436, 365
13519026, 463, 411, 453, 394
13524087, 469, 424, 472, 408
13529121, 468, 424, 466, 394
13534159, 445, 413, 447, 405
13539199, 451, 417, 463, 423
13544233, 472, 424, 465, 413
13549271, 462, 415, 448, 395
13554134, 448, 414, 452, 419
13559175, 472, 406, 475, 415
13564011, 469, 407, 452, 403
13568701, 452, 401, 457, 407
13573742, 460, 415, 477, 425
13578799, 472, 409, 459, 405
13583804, 449, 398, 454, 398
13588791, 454, 416, 475, 427
13593828, 464, 425, 467, 420
13598871, 463, 412, 455, 409
13603954, 458, 416, 466, 415
13608998, 478, 428, 449, 422
13614033, 474, 418, 448, 376
13619069, 430, 415, 458, 405
13624107, 426, 414, 450, 417
13629143, 429, 424, 458, 406
13634185, 431, 412, 427, 397
13639232, 448, 426, 461, 422
13644322, 461, 432, 460, 417
13649362, 449, 421, 443, 400
13654410, 454, 413, 456, 410
13659455, 447, 431, 473, 425
13664488, 456, 415, 459, 408
13669523, 455, 412, 457, 422
13674556, 472, 427, 470, 423
13679620, 481, 419, 463, 402
13684654, 455, 410, 460, 411
13689688, 462, 424, 480, 424
13694726, 476, 429, 463, 402
13699760, 461, 410, 445, 393
13704793, 456, 419, 467, 413
13709826, 467, 429, 475, 419
13714861, 457, 413, 451, 399
13719896, 448, 416, 457, 413
13724930, 476, 431, 472, 422
13729965, 474, 418, 453, 397
13735008, 449, 415, 453, 400
13739910, 459, 421, 474, 426
13744949, 466, 420, 443, 418
13750023, 458, 412, 436, 380
13755071, 463, 412, 465, 416
13760140, 474, 415, 469, 419
13765188, 453, 401, 454, 404
13770256, 448, 409, 470, 410
13775328, 474, 412, 479, 411
13780405, 440, 407, 460, 403
13785239, 448, 402, 458, 405
13790307, 455, 395, 483, 418
13795422, 466, 406, 464, 414
13800466, 456, 396, 458, 379
13805547, 465, 386, 466, 406
13810648, 478, 412, 477, 400
13815695, 468, 409, 459, 389
13820775, 464, 403, 462, 413
13825858, 473, 420, 479, 420
13830979, 462, 413, 455, 405
13836081, 460, 412, 456, 414
13841123, 474, 417, 477, 430
13846167, 466, 412, 466, 416
13851210, 457, 410, 462, 415
13856254, 465, 422, 481, 422
13861355, 473, 427, 475, 417
13866407, 455, 411, 456, 399
13871454, 454, 415, 461, 412
13876503, 464, 424, 469, 419
13881540, 467, 415, 450, 397
13886574, 451, 405, 434, 410
13891608, 468, 426, 464, 427
13896669, 468, 400, 463, 403
13901703, 456, 392, 457, 402
13906737, 463, 412, 477, 428
13911778, 475, 420, 470, 416
13916846, 456, 413, 459, 413
13921893, 460, 418, 466, 428
13926935, 481, 417, 476, 428
13931973, 459, 404, 451, 412
13937008, 452, 404, 456, 396
13942042, 447, 425, 478, 417
13947081, 450, 410, 453, 398
13952115, 420, 412, 451, 401
13957149, 454, 413, 466, 420
13962191, 440, 420, 468, 412
13967238, 450, 416, 463, 401
13972295, 461, 422, 474, 418
13977343, 476, 432, 477, 417
13982378, 464, 417, 456, 403
13987411, 459, 414, 440, 422
13992446, 471, 431, 468, 428
13997515, 464, 419, 457, 411
14002550, 456, 411, 458, 419
14007583, 476, 422, 473, 423
14012627, 462, 397, 458, 401
14017677, 454, 389, 427, 404
14022776, 458, 405, 461, 430
14027831, 464, 415, 467, 388
14032865, 460, 402, 455, 401
14037908, 465, 412, 473, 420
14042964, 476, 425, 471, 425
14048001, 470, 415, 449, 400
14053040, 460, 408, 452, 418
14058074, 475, 414, 466, 430
14063119, 475, 417, 463, 413
14068167, 458, 408, 444, 404
14073223, 469, 397, 464, 430
14078231, 479, 410, 466, 419
14083269, 455, 401, 428, 409
14088303, 456, 414, 455, 421
14093337, 473, 403, 470, 417
14098388, 464, 398, 460, 401
14103445, 464, 397, 469, 414
14108478, 481, 412, 481, 414
14113523, 474, 416, 460, 410
14118613, 465, 412, 463, 417
14123675, 467, 425, 471, 431
14128766, 471, 416, 460, 409
14133810, 452, 414, 453, 398
14138797, 459, 400, 472, 429
14143883, 480, 419, 479, 412
14148939, 470, 402, 458, 394
14154011, 454, 413, 474, 389
14159059, 480, 423, 483, 407
14164075, 470, 409, 456, 400
14168652, 448, 409, 459, 412
14173590, 470, 416, 471, 419
14178660, 480, 420, 464, 407
14183729, 466, 414, 460, 407
14188820, 472, 426, 482, 429
14193912, 485, 431, 483, 420
14199003, 463, 417, 460, 411
14204073, 457, 414, 474, 419
14209142, 470, 429, 483, 420
14214216, 468, 416, 461, 408
14219261, 461, 404, 462, 421
14224295, 468, 419, 452, 424
14229331, 478, 415, 456, 412
14234365, 450, 400, 455, 413
14239419, 434, 406, 472, 424
14244456, 435, 420, 465, 406
14249491, 445, 414, 443, 406
14254525, 450, 400, 467, 428
14259572, 480, 421, 470, 429
14264609, 475, 408, 463, 401
14269643, 462, 410, 460, 410
14274677, 464, 425, 449, 395
14279713, 474, 419, 455, 394
14284748, 459, 412, 452, 397
14289786, 470, 428, 475, 422
14294823, 469, 422, 470, 418
14299858, 455, 415, 461, 416
14304918, 460, 423, 475, 437
14310013, 481, 422, 474, 431
14315062, 462, 409, 462, 409
14320108, 461, 405, 473, 421
14325099, 474, 421, 482, 425
14330194, 465, 410, 458, 404
14335109, 450, 414, 454, 420
14340221, 477, 432, 483, 438
14345321, 478, 432, 467, 423
14350389, 464, 413, 451, 410
14355457, 469, 416, 468, 404
14360553, 479, 429, 480, 415
14365621, 458, 413, 465, 401
14370687, 448, 417, 473, 417
14375754, 475, 422, 483, 418
14380805, 466, 419, 460, 396
14385875, 465, 412, 468, 422
14390918, 472, 432, 490, 437
14395956, 481, 424, 445, 412
14400991, 460, 425, 454, 405
14406028, 476, 429, 479, 423
14411065, 473, 428, 467, 416
14416101, 462, 406, 457, 411
14421150, 437, 420, 475, 427
14426186, 465, 430, 470, 428
14431222, 455, 400, 454, 418
14436256, 455, 409, 469, 418
14441293, 475, 428, 489, 422
14446330, 471, 427, 469, 415
14451367, 459, 417, 459, 415
14456403, 468, 424, 476, 438
14461373, 473, 433, 479, 428
14466409, 462, 417, 464, 423
14471444, 473, 423, 482, 435
14476480, 488, 429, 476, 427
14481516, 478, 417, 467, 411
14486553, 471, 416, 473, 423
14491588, 486, 434, 486, 434
14496624, 473, 428, 464, 389
14501659, 463, 417, 471, 413
14506694, 470, 427, 490, 431
14511730, 488, 425, 473, 424
14516762, 477, 413, 467, 426
14521795, 475, 424, 481, 432
14526832, 490, 437, 481, 436
14531868, 480, 427, 461, 422
14536904, 475, 428, 476, 441
14541948, 485, 438, 479, 440
14546985, 477, 423, 461, 424
14552019, 464, 415, 460, 420
14557053, 485, 425, 489, 443
14561962, 481, 424, 475, 423
14566997, 465, 421, 466, 420
14572032, 467, 428, 486, 447
14577069, 477, 426, 472, 431
14582104, 463, 396, 467, 414
14587161, 459, 411, 479, 434
14592222, 476, 426, 485, 428
14597258, 467, 424, 470, 421
14602304, 459, 427, 473, 424
14607283, 476, 431, 486, 440
14612334, 487, 426, 479, 425
14617369, 462, 418, 463, 422
14622404, 463, 432, 482, 444
14627441, 479, 438, 485, 433
14632478, 463, 424, 463, 411
14637514, 456, 432, 474, 425
14642549, 484, 437, 455, 430
14647586, 479, 420, 449, 414
14652619, 465, 423, 455, 417
14657652, 473, 428, 473, 423
14662646, 467, 405, 469, 414
14667679, 458, 404, 462, 406
14672693, 475, 421, 471, 433
14677765, 485, 424, 474, 418
14682825, 468, 418, 466, 400
14687898, 470, 423, 479, 428
14692740, 474, 432, 484, 434
14697776, 473, 424, 467, 404
14702811, 456, 423, 466, 410
14707825, 480, 431, 482, 429
14712875, 470, 422, 475, 406
14717932, 462, 416, 460, 414
14722985, 471, 419, 483, 403
14728034, 478, 417, 468, 399
14733072, 454, 406, 462, 399
14738107, 465, 412, 448, 421
14743155, 478, 427, 466, 419
14748190, 459, 417, 457, 404
14753237, 454, 410, 465, 421
14758290, 464, 425, 472, 422
14763338, 458, 410, 451, 407
14768376, 423, 412, 448, 412
14773436, 454, 417, 462, 432
14778365, 459, 412, 436, 419
14783457, 448, 411, 449, 406
14788538, 463, 421, 471, 426
14793599, 475, 421, 468, 422
14798697, 457, 407, 458, 411
14803764, 451, 409, 474, 415
14808850, 468, 424, 481, 422
14813894, 465, 408, 458, 406
14818982, 453, 410, 467, 418
14824027, 472, 427, 479, 417
14829071, 476, 421, 457, 403
14834139, 458, 403, 451, 396
14839184, 455, 417, 469, 424
14844174, 469, 421, 461, 420
14849217, 456, 408, 448, 408
14854182, 456, 405, 465, 425
14859250, 464, 418, 475, 416
14864319, 466, 411, 453, 403
14869390, 460, 406, 450, 407
14874465, 469, 394, 460, 416
14879524, 463, 395, 456, 403
14884572, 450, 392, 456, 405
14889620, 468, 410, 477, 415
14894666, 479, 420, 470, 408
14899714, 459, 410, 448, 392
14904778, 460, 421, 468, 421
14909827, 477, 426, 475, 419
14914861, 463, 416, 447, 397
14919897, 447, 391, 455, 414
14924932, 467, 411, 465, 424
14929965, 466, 407, 452, 409
14935008, 456, 403, 444, 404
14940075, 472, 411, 472, 428
14945121, 466, 412, 468, 414
14950172, 446, 404, 451, 395
14955209, 443, 394, 470, 413
14960245, 467, 411, 475, 404
14965279, 451, 400, 453, 402
14970289, 444, 408, 459, 419
14975323, 460, 422, 466, 420
14980356, 449, 389, 427, 407
14985464, 449, 393, 445, 405
14990497, 462, 412, 466, 419
14995531, 476, 420, 463, 400
15000568, 459, 401, 445, 403
15005620, 459, 411, 462, 417
15010656, 467, 417, 469, 414
15015689, 456, 407, 452, 404
15020727, 462, 413, 467, 422
15025760, 476, 419, 469, 393
15030794, 472, 406, 454, 390
15035830, 457, 399, 461, 411
15040868, 468, 412, 471, 418
15045927, 475, 411, 460, 406
15050984, 452, 408, 456, 408
15056019, 467, 420, 478, 414
15061053, 472, 423, 462, 412
15066086, 461, 405, 450, 402
15071128, 459, 405, 456, 426
15076161, 473, 413, 472, 425
15081195, 459, 406, 459, 401
15086233, 453, 407, 460, 411
15091267, 466, 420, 482, 417
15096301, 460, 422, 466, 401
15101339, 451, 416, 462, 404
15106373, 463, 427, 468, 425
15111406, 471, 426, 459, 411
15116440, 446, 391, 448, 396
15121506, 457, 403, 471, 389
15126540, 475, 409, 471, 399
15131573, 455, 403, 453, 390
15136611, 447, 399, 457, 381
15141644, 460, 408, 466, 409
15146702, 458, 411, 458, 389
15151763, 451, 401, 448, 402
15156799, 461, 412, 474, 425
15161833, 472, 416, 456, 409
15166871, 458, 409, 453, 398
15171930, 461, 412, 466, 411
15176764, 475, 423, 472, 410
15181606, 457, 411, 444, 390
15186646, 450, 408, 461, 383
15191698, 471, 415, 472, 404
15196768, 468, 409, 449, 388
15201872, 446, 404, 449, 405
15206942, 468, 414, 468, 425
15212011, 480, 418, 466, 411
15216963, 448, 402, 459, 399
15222001, 463, 418, 468, 418
15227035, 478, 427, 476, 417
15232074, 467, 414, 458, 399
15237134, 458, 411, 475, 410
15241951, 477, 423, 475, 424
15247002, 468, 410, 463, 409
15252045, 463, 407, 453, 417
15257086, 466, 419, 468, 423
15262124, 464, 418, 467, 406
15267160, 443, 400, 450, 410
15272195, 454, 407, 461, 432
15277230, 478, 416, 463, 423
15282265, 465, 409, 444, 405
15287306, 461, 413, 466, 422
15292342, 472, 429, 479, 426
15297378, 470, 416, 460, 411
15302473, 464, 415, 466, 411
15307556, 476, 424, 485, 419
15312626, 466, 421, 462, 401
15317691, 452, 408, 446, 400
15322730, 457, 426, 472, 415
15327765, 465, 430, 471, 401
15332843, 454, 417, 455, 394
15337881, 447, 416, 467, 420
15342812, 466, 420, 471, 424
15347851, 467, 414, 452, 412
15352815, 458, 418, 462, 421
15357852, 476, 430, 469, 426
15362887, 481, 423, 458, 408
15367925, 455, 409, 456, 403
15372928, 459, 421, 479, 421
15377830, 467, 422, 469, 407
15382872, 453, 414, 452, 399
15387909, 451, 412, 469, 421
15392683, 468, 427, 474, 416
15397720, 463, 410, 431, 391
15402765, 457, 414, 447, 403
15407653, 464, 430, 469, 414
15412689, 477, 426, 457, 408
15417726, 458, 419, 449, 410
15422762, 469, 421, 470, 433
15427799, 473, 425, 470, 416
15432838, 458, 412, 460, 409
15437875, 464, 419, 474, 424
15442927, 483, 426, 477, 429
15447966, 459, 406, 455, 404
15452985, 455, 409, 460, 423
15458110, 467, 423, 468, 422
15463238, 464, 417, 458, 407
15468307, 453, 406, 461, 410
15473377, 465, 420, 476, 418
15478447, 473, 422, 470, 411
15483517, 452, 413, 461, 404
15488586, 462, 412, 468, 418
15493656, 449, 427, 474, 417
15498727, 447, 416, 459, 403
15503797, 451, 419, 466, 414
15508848, 468, 431, 478, 426
15513918, 467, 418, 459, 396
15518987, 448, 392, 463, 413
15524057, 477, 413, 479, 427
15529127, 470, 412, 459, 403
15534197, 456, 399, 449, 401
15539267, 469, 406, 467, 421
15544387, 473, 416, 462, 408
15549466, 456, 410, 454, 407
15554520, 450, 419, 473, 417
15559620, 463, 420, 472, 417
15564597, 446, 386, 462, 404
15569685, 421, 399, 468, 420
15574729, 457, 417, 482, 417
15579772, 459, 407, 467, 401
15584847, 443, 399, 453, 401
15589938, 455, 408, 473, 423
15594982, 471, 418, 460, 403
15599998, 451, 410, 454, 400
15605058, 450, 411, 474, 425
15610118, 475, 416, 448, 417
15615165, 462, 413, 447, 401
15620047, 457, 410, 451, 411
15624930, 466, 403, 469, 415
15629740, 472, 406, 455, 395
15634846, 460, 406, 444, 401
15639892, 472, 397, 475, 418
15644992, 483, 404, 461, 412
15650083, 456, 402, 450, 378
15655153, 463, 414, 473, 404
15660222, 473, 423, 470, 412
15665292, 453, 408, 456, 404
15670361, 449, 415, 470, 424
15675431, 470, 426, 481, 431
15680505, 471, 417, 455, 405
15685574, 449, 408, 454, 415
15690622, 463, 425, 474, 426
15695669, 465, 418, 467, 400
15700720, 444, 399, 457, 395
15705756, 449, 411, 474, 413
15710604, 461, 416, 445, 402
15715639, 456, 410, 435, 368
15720734, 457, 406, 450, 408
15725546, 467, 400, 473, 421
15730612, 466, 403, 452, 400
15735688, 460, 400, 462, 406
15740750, 479, 419, 481, 425
15745792, 471, 415, 459, 403
15750942, 447, 402, 451, 400
15756010, 460, 421, 472, 427
15761098, 464, 417, 457, 408
15766165, 445, 402, 449, 404
15771232, 448, 407, 466, 429
15776229, 474, 415, 463, 419
15781297, 468, 406, 448, 396
15786257, 461, 411, 462, 417
15791348, 475, 420, 483, 419
15796416, 473, 415, 458, 398
15801474, 450, 398, 452, 399
15806536, 433, 395, 479, 421
15811588, 457, 401, 470, 405
15816656, 450, 395, 461, 397
15821694, 450, 409, 473, 424
15826735, 474, 417, 473, 420
15831787, 466, 399, 452, 409
15836829, 450, 398, 462, 419
15841869, 438, 392, 452, 419
15846909, 462, 403, 451, 395
15851820, 456, 397, 449, 404
15856858, 472, 408, 466, 425
15861900, 479, 407, 463, 412
15866954, 456, 395, 454, 398
15871988, 465, 408, 478, 426
15877035, 479, 418, 472, 420
15882071, 457, 387, 458, 409
15887108, 452, 395, 472, 419
15892146, 478, 409, 470, 418
15897184, 472, 405, 459, 404
15902231, 462, 400, 459, 417
15907270, 476, 405, 470, 427
15912308, 467, 407, 433, 402
15917342, 452, 400, 441, 406
15922384, 467, 416, 464, 429
15927421, 470, 426, 471, 414
15932457, 464, 414, 449, 406
15937490, 463, 409, 464, 425
15942633, 474, 418, 478, 424
15947697, 470, 416, 461, 407
15952736, 462, 407, 461, 418
15957780, 477, 415, 472, 399
15962494, 467, 408, 463, 390
15967338, 451, 404, 450, 402
15972284, 465, 421, 473, 428
15976990, 474, 419, 469, 424
15981839, 464, 404, 451, 409
15986877, 461, 400, 460, 424
15991915, 473, 423, 474, 418
15996952, 465, 411, 463, 408
16001987, 454, 407, 456, 416
16007024, 473, 416, 480, 431
16012059, 475, 411, 473, 414
16017091, 455, 396, 454, 400
16022125, 461, 415, 463, 428
16027160, 473, 418, 460, 420
16032196, 461, 403, 455, 412
16037231, 449, 405, 462, 430
16042265, 470, 411, 445, 432
16047300, 457, 403, 440, 400
16052336, 449, 401, 457, 419
16057377, 465, 418, 472, 424
16062293, 471, 419, 466, 416
16067325, 451, 409, 461, 402
16072361, 460, 422, 477, 416
16077396, 478, 427, 468, 412
16082431, 463, 405, 443, 396
16087465, 455, 407, 464, 422
16092499, 474, 422, 481, 427
16097534, 473, 415, 459, 401
16102568, 458, 407, 459, 416
16107517, 463, 422, 469, 432
16112588, 468, 412, 455, 416
16117675, 459, 409, 449, 414
16122746, 467, 416, 468, 420
16127818, 478, 422, 464, 413
16132889, 448, 390, 458, 402
16137960, 459, 403, 445, 413
16143037, 471, 418, 452, 411
16148086, 456, 388, 434, 396
16153156, 452, 377, 449, 418
16158227, 478, 406, 467, 428
16163298, 479, 407, 452, 411
16168367, 450, 399, 461, 408
16173436, 459, 411, 474, 429
16178506, 465, 409, 456, 409
16183576, 449, 403, 457, 400
16188504, 458, 416, 470, 424
16193564, 480, 429, 473, 408
16198598, 466, 408, 452, 401
16203632, 460, 406, 460, 417
16208666, 473, 399, 477, 418
16213700, 471, 395, 459, 407
16218733, 448, 398, 458, 408
16223772, 473, 418, 482, 428
16228807, 474, 420, 470, 384
16233843, 459, 410, 455, 397
16238715, 460, 396, 460, 415
16243709, 475, 387, 459, 411
16248587, 455, 386, 450, 396
16253631, 452, 393, 469, 409
16258671, 475, 413, 473, 415
16263706, 467, 402, 455, 394
16268740, 452, 406, 452, 411
16273817, 474, 424, 474, 428
16278741, 479, 413, 468, 413
16283811, 453, 406, 462, 405
16288865, 463, 420, 477, 424
16293783, 471, 426, 474, 423
16298819, 457, 406, 459, 404
16303860, 454, 409, 465, 394
16308902, 463, 422, 477, 415
16313938, 463, 417, 455, 403
16318978, 445, 410, 455, 407
16324015, 469, 424, 468, 417
16329056, 468, 417, 465, 401
16334092, 455, 404, 455, 400
16339129, 459, 419, 465, 414
16344165, 468, 420, 466, 381
16349204, 464, 415, 453, 388
16354246, 461, 414, 469, 417
16359283, 472, 428, 471, 416
16364148, 471, 416, 451, 409
16369206, 452, 417, 459, 412
16374248, 472, 428, 477, 427
16379283, 476, 425, 456, 408
16384219, 457, 405, 426, 411
16389252, 468, 418, 465, 429
16394292, 482, 424, 466, 411
16399345, 456, 416, 460, 406
16404380, 465, 424, 478, 426
16409420, 475, 433, 481, 395
16414458, 455, 418, 459, 387
16418881, 441, 417, 461, 407
16423975, 461, 431, 478, 417
16429126, 466, 421, 466, 406
16434293, 457, 407, 464, 413
16439413, 462, 411, 479, 428
16444420, 447, 417, 469, 417
16449530, 444, 408, 458, 407
16454619, 460, 420, 479, 424
16459686, 480, 427, 472, 430
16464751, 469, 414, 457, 399
16469796, 453, 406, 461, 414
16474848, 465, 416, 476, 397
16479896, 466, 414, 454, 389
16484943, 458, 403, 460, 405
16490045, 465, 419, 472, 425
16495090, 473, 423, 475, 416
16500136, 459, 409, 464, 422
16505212, 472, 425, 488, 450
16510257, 492, 432, 485, 433
16515302, 472, 417, 454, 402
16520346, 465, 418, 462, 422
16525403, 473, 402, 474, 425
16530451, 459, 402, 461, 394
16535498, 441, 405, 451, 396
16540527, 464, 413, 464, 424
16545575, 462, 412, 464, 412
16550623, 456, 409, 461, 401
16555673, 471, 418, 469, 420
16560591, 475, 426, 471, 415
16565638, 456, 417, 448, 404
16570689, 458, 414, 458, 427
16575732, 484, 427, 475, 427
16580782, 472, 416, 454, 404
16585816, 463, 405, 461, 419
16590854, 467, 417, 476, 421
16595887, 469, 411, 469, 403
16600920, 449, 403, 461, 402
16605902, 463, 417, 468, 430
16610936, 470, 418, 454, 422
16615969, 456, 388, 453, 412
16621007, 463, 402, 463, 431
16625911, 476, 420, 469, 421
16630741, 473, 415, 449, 401
16635219, 453, 409, 449, 410
16640198, 461, 418, 473, 432
16644901, 465, 421, 464, 418
16649603, 447, 409, 456, 398
16654360, 447, 410, 463, 411
16659404, 467, 423, 467, 416
16664439, 463, 409, 456, 405
16669474, 452, 412, 468, 420
16674523, 479, 429, 483, 433
16679561, 473, 422, 466, 412
16684596, 458, 415, 462, 416
16689544, 459, 423, 479, 434
16694588, 471, 418, 473, 420
16699625, 454, 407, 460, 415
16704661, 432, 419, 476, 426
16709701, 467, 423, 485, 425
16714491, 458, 415, 462, 410
16719527, 457, 407, 460, 425
16724563, 473, 422, 481, 425
16729599, 468, 415, 464, 411
16734499, 426, 409, 453, 407
16739328, 457, 423, 471, 424
16744370, 466, 419, 465, 406
16749405, 448, 406, 445, 405
16754420, 444, 396, 468, 420
16759456, 478, 415, 480, 427
16764490, 456, 406, 465, 400
16769529, 457, 409, 463, 407
16774426, 470, 421, 478, 419
16779525, 473, 417, 469, 401
16784567, 456, 409, 460, 409
16789432, 467, 416, 481, 420
16794529, 479, 421, 466, 400
16799598, 451, 403, 444, 389
16804644, 449, 405, 439, 413
16809763, 468, 417, 459, 415
16814824, 462, 403, 442, 393
16819914, 457, 402, 432, 409
16825018, 473, 424, 465, 413
16830090, 471, 421, 449, 394
16835159, 450, 411, 454, 411
16840226, 468, 413, 446, 418
16845294, 467, 414, 450, 410
16850368, 445, 385, 442, 397
16855455, 459, 403, 471, 421
16860530, 475, 410, 465, 408
16865474, 456, 381, 448, 405
16870544, 458, 388, 440, 415
16875597, 480, 416, 469, 414
16880644, 462, 412, 455, 406
16885693, 460, 414, 452, 416
16890498, 473, 418, 471, 433
16895569, 467, 395, 461, 408
16900639, 452, 391, 452, 412
16905712, 471, 404, 476, 421
16910806, 474, 417, 473, 406
16915877, 466, 404, 457, 402
16920948, 464, 415, 467, 425
16926029, 482, 421, 473, 416
16931066, 459, 407, 453, 407
16936115, 447, 409, 462, 412
16940971, 462, 423, 478, 426
16945793, 456, 413, 454, 399
16950830, 454, 406, 457, 403
16955875, 456, 424, 471, 416
16960916, 475, 424, 460, 401
16965951, 449, 406, 452, 395
16970987, 453, 406, 462, 412
16976027, 477, 425, 474, 420
16981103, 463, 409, 457, 404
16986057, 453, 403, 457, 423
16991100, 470, 414, 471, 423
16996142, 472, 413, 458, 397
17001179, 457, 405, 444, 403
17006221, 468, 415, 471, 415
17011261, 477, 416, 464, 404
17016296, 452, 406, 444, 403
17021333, 450, 418, 468, 419
17026371, 462, 428, 473, 409
17031411, 459, 405, 447, 396
17036446, 446, 409, 460, 405
17041481, 470, 411, 475, 418
17046524, 439, 407, 455, 405
17051561, 434, 400, 453, 405
17056598, 464, 418, 465, 422
17061637, 462, 414, 457, 414
17066674, 456, 409, 451, 399
17071709, 464, 409, 465, 413
17076744, 467, 416, 465, 406
17081781, 454, 413, 447, 388
17086816, 459, 413, 463, 418
17091851, 467, 422, 468, 413
17096888, 460, 411, 455, 394
17101924, 425, 410, 461, 411
17106959, 451, 424, 469, 417
17111994, 457, 426, 461, 402
17117033, 450, 417, 451, 392
17122072, 461, 419, 462, 422
17127107, 471, 416, 438, 419
17132144, 455, 412, 440, 400
17137179, 448, 411, 464, 423
17142213, 473, 418, 477, 417
17147250, 460, 411, 459, 401
17152104, 439, 405, 451, 403
17156925, 453, 416, 472, 419
17162136, 467, 421, 466, 399
17167104, 447, 406, 450, 402
17172151, 453, 422, 467, 413
17177048, 461, 404, 464, 406
17182089, 456, 401, 444, 405
17187127, 449, 405, 452, 416
17191849, 467, 417, 472, 426
17196749, 462, 414, 465, 410
17201789, 458, 413, 461, 418
17206826, 472, 421, 479, 430
17211861, 478, 414, 462, 401
17216901, 465, 410, 457, 404
17221938, 463, 421, 467, 426
17226973, 469, 424, 461, 406
17232012, 454, 413, 446, 405
17237047, 445, 412, 470, 417
17242081, 465, 430, 475, 417
17247120, 453, 395, 459, 397
17252156, 443, 396, 460, 407
17257201, 464, 419, 478, 420
17262240, 474, 409, 437, 411
17267276, 460, 401, 446, 400
17272311, 457, 413, 475, 415
17277345, 466, 418, 463, 400
17282383, 447, 408, 445, 387
17287418, 449, 418, 459, 415
17292452, 466, 432, 471, 411
17297531, 465, 422, 452, 395
17302601, 446, 410, 452, 412
17307672, 471, 424, 463, 414
17312720, 468, 427, 456, 409
17317758, 459, 412, 458, 407
17322794, 470, 427, 477, 420
17327829, 476, 420, 463, 401
17332879, 466, 410, 448, 398
17337927, 465, 410, 463, 409
17342974, 468, 398, 463, 408
17348020, 463, 375, 447, 405
17353056, 454, 386, 463, 421
17358094, 467, 409, 472, 427
17363131, 461, 410, 455, 398
17368165, 444, 385, 453, 413
17373199, 469, 406, 476, 422
17378232, 472, 417, 469, 413
17383268, 456, 402, 450, 407
17388302, 466, 407, 471, 421
17393336, 469, 414, 467, 411
17398382, 453, 385, 455, 401
17403432, 454, 396, 460, 416
17408481, 473, 406, 473, 425
17413541, 463, 396, 456, 398
17418590, 451, 390, 453, 413
17423442, 461, 413, 466, 427
17428530, 473, 413, 452, 402
17433580, 448, 403, 453, 375
17438628, 464, 412, 472, 410
17443675, 481, 424, 474, 412
17448724, 463, 414, 459, 408
17453771, 452, 419, 469, 426
17458839, 464, 422, 472, 398
17463908, 436, 417, 450, 397
17468955, 446, 418, 465, 411
17474027, 471, 432, 478, 425
17479096, 472, 426, 466, 406
17484131, 449, 417, 461, 411
17489198, 459, 425, 477, 427
17494261, 475, 425, 465, 415
17499312, 457, 409, 453, 398
17504272, 456, 418, 470, 427
17509332, 478, 429, 466, 424
17514378, 468, 411, 445, 412
17519411, 464, 410, 456, 424
17524446, 464, 404, 480, 436
17529483, 474, 409, 468, 404
17534516, 462, 406, 465, 413
17539551, 475, 419, 475, 426
17544584, 472, 417, 463, 418
17549621, 460, 403, 450, 412
17554655, 466, 406, 443, 417
17559700, 471, 420, 453, 415
17564771, 455, 406, 447, 396
17569816, 452, 405, 463, 419
17574861, 476, 416, 477, 419
17579968, 476, 411, 456, 397
17585027, 448, 410, 459, 406
17590069, 468, 416, 475, 396
17595155, 481, 421, 465, 403
17600201, 458, 411, 451, 404
17605338, 467, 417, 464, 428
17610380, 475, 416, 460, 418
17615487, 463, 409, 440, 395
17620539, 453, 411, 468, 413
17625601, 473, 423, 475, 415
17630697, 464, 407, 459, 394
17635773, 460, 406, 460, 417
17640808, 466, 424, 477, 420
17645898, 473, 412, 461, 410
17650815, 455, 397, 451, 415
17655865, 460, 415, 473, 424
17660932, 476, 415, 462, 420
17665980, 463, 400, 454, 407
17671029, 457, 409, 440, 424
17676076, 470, 414, 460, 412
17680883, 429, 389, 453, 391
17685917, 439, 395, 457, 406
17690952, 462, 410, 470, 426
17695989, 440, 417, 452, 412
17701038, 449, 409, 456, 416
17706084, 463, 417, 479, 422
17711136, 467, 414, 471, 416
17716172, 451, 410, 459, 414
17721207, 452, 421, 472, 432
17726241, 466, 426, 480, 429
17731298, 464, 418, 461, 409
17736332, 459, 416, 455, 416
17741367, 464, 405, 471, 426
17746459, 459, 403, 453, 412
17751507, 444, 398, 454, 416
17756551, 456, 415, 447, 420
17761612, 474, 418, 453, 413
17766649, 461, 413, 447, 405
17771682, 465, 415, 463, 424
17776755, 473, 420, 469, 419
17781872, 457, 411, 451, 404
17786963, 451, 414, 465, 424
17792030, 467, 429, 476, 432
17797138, 461, 415, 466, 413
17802205, 451, 410, 471, 418
17807272, 469, 424, 477, 433
17812379, 469, 422, 460, 407
17817446, 455, 416, 460, 405
17822491, 460, 420, 481, 421
17827536, 479, 427, 471, 409
17832615, 458, 413, 453, 407
17837620, 465, 417, 467, 427
17842735, 477, 427, 468, 425
17847827, 463, 411, 447, 405
17852873, 455, 407, 462, 416
17857726, 469, 425, 484, 433
17862832, 474, 422, 470, 412
17867877, 452, 420, 468, 423
17872922, 473, 429, 473, 430
17877966, 475, 425, 466, 417
17883132, 458, 407, 456, 403
17888180, 451, 414, 464, 417
17893228, 466, 423, 459, 409
17898300, 457, 407, 439, 391
17903347, 445, 407, 450, 405
17908393, 461, 416, 472, 413
17913442, 461, 412, 448, 398
17918488, 451, 413, 456, 414
17923535, 461, 421, 475, 418
17928604, 462, 414, 451, 393
17933652, 450, 383, 446, 391
17938699, 464, 404, 473, 415
17943741, 479, 414, 465, 403
17948788, 463, 410, 447, 399
17953845, 454, 394, 460, 413
17958887, 482, 415, 467, 421
17963930, 473, 406, 446, 398
17968965, 453, 382, 449, 415
17974037, 465, 399, 467, 426
17979088, 462, 398, 452, 377
17984122, 456, 403, 456, 392
17989157, 469, 416, 467, 427
17994191, 477, 415, 468, 409
17999246, 458, 402, 454, 403
18004298, 458, 390, 459, 417
18009353, 481, 387, 471, 412
18014399, 464, 392, 458, 407
18019433, 463, 392, 471, 413
18024467, 472, 414, 477, 424
18029504, 463, 403, 460, 411
18034578, 448, 404, 452, 410
18039420, 467, 420, 462, 431
18044227, 469, 421, 436, 416
18049289, 459, 408, 447, 413
18054359, 460, 420, 462, 427
18059311, 466, 422, 466, 425
18064412, 467, 415, 456, 401
18069461, 457, 412, 473, 412
18074515, 468, 430, 475, 428
18079568, 470, 414, 461, 401
18084617, 458, 411, 452, 403
18089687, 474, 420, 477, 425
18094720, 481, 423, 467, 408
18099756, 462, 410, 448, 408
18104789, 462, 398, 474, 433
18109822, 485, 416, 477, 418
18114856, 468, 401, 458, 395
18119891, 462, 402, 470, 417
18124930, 469, 420, 471, 419
18129977, 467, 413, 452, 396
18135019, 449, 403, 447, 411
18140076, 461, 415, 466, 426
18145131, 470, 415, 464, 383
18150186, 461, 406, 463, 389
18155236, 466, 420, 471, 418
18160292, 482, 429, 472, 405
18165346, 468, 412, 457, 393
18170400, 464, 422, 471, 415
18175456, 485, 428, 475, 421
18180499, 466, 421, 456, 400
18185540, 445, 413, 464, 406
18190577, 467, 425, 483, 424
18195638, 466, 415, 459, 412
18200554, 443, 408, 456, 417
18205627, 460, 427, 476, 432
18210470, 477, 430, 478, 423
18215565, 462, 417, 449, 404
18220659, 464, 420, 464, 428
18225638, 482, 434, 475, 429
18230712, 474, 416, 451, 400
18235784, 428, 410, 459, 419
18240857, 463, 416, 480, 422
18245929, 464, 415, 466, 395
18251002, 439, 402, 433, 398
18256075, 465, 424, 468, 427
18261171, 470, 428, 454, 412
18266244, 448, 411, 452, 409
18271317, 459, 415, 471, 422
18276390, 476, 419, 474, 425
18281463, 465, 408, 460, 402
18286535, 457, 414, 471, 423
18291608, 476, 430, 475, 420
18296681, 474, 415, 452, 405
18301754, 427, 409, 462, 407
18306827, 455, 417, 466, 417
18311125, 459, 416, 452, 407
18316169, 450, 399, 438, 397
18321217, 450, 409, 468, 417
18326250, 476, 423, 475, 413
18331283, 468, 406, 452, 400
18336324, 461, 410, 465, 422
18341360, 473, 427, 477, 430
18346401, 468, 418, 462, 414
18351442, 457, 414, 461, 419
18356480, 470, 428, 480, 430
18361516, 479, 429, 471, 418
18366554, 460, 413, 451, 411
18371598, 452, 415, 462, 422
18376634, 475, 418, 472, 420
18381670, 455, 409, 446, 407
18386710, 449, 409, 463, 416
18391746, 466, 412, 472, 412
18396782, 436, 406, 464, 404
18401820, 445, 407, 464, 416
18406855, 466, 421, 483, 434
18411891, 475, 419, 470, 415
18416931, 456, 408, 451, 410
18421970, 466, 418, 463, 431
18427006, 466, 417, 463, 411
18432043, 463, 404, 443, 401
18437084, 452, 406, 462, 421
18442121, 479, 422, 465, 417
18447160, 463, 416, 448, 394
18452199, 445, 405, 448, 400
18457234, 461, 418, 465, 412
18462268, 470, 422, 457, 406
18467306, 456, 417, 453, 379
18472344, 471, 421, 471, 406
18477379, 474, 418, 463, 396
18482414, 452, 413, 450, 399
18487453, 456, 412, 469, 415
18492488, 463, 414, 469, 416
18497524, 455, 409, 450, 408
18502452, 445, 409, 461, 419
18507335, 465, 417, 468, 424
18512269, 469, 419, 464, 413
18516913, 449, 405, 448, 402
18521774, 459, 415, 470, 428
18526633, 471, 414, 472, 423
18531492, 453, 401, 455, 402
18536401, 449, 403, 462, 425
18541438, 471, 418, 480, 421
18546472, 471, 413, 469, 406
18551511, 449, 411, 462, 400
18556547, 463, 411, 449, 413
18561582, 466, 411, 449, 401
18566460, 446, 403, 444, 396
18571501, 461, 415, 471, 423
18576537, 472, 423, 468, 419
18581572, 463, 406, 454, 398
18586611, 455, 411, 456, 421
18591648, 475, 418, 471, 426
18596689, 459, 389, 460, 411
18601731, 448, 395, 462, 412
18606768, 458, 413, 470, 433
18611807, 475, 410, 466, 409
18616842, 454, 407, 460, 406
18621882, 466, 415, 476, 418
18626751, 467, 418, 477, 405
18631790, 457, 412, 450, 394
18636833, 451, 394, 470, 419
18641868, 469, 414, 479, 424
18646903, 457, 384, 453, 407
18651942, 448, 387, 459, 409
18656978, 472, 408, 478, 423
18662013, 479, 415, 470, 401
18667050, 454, 406, 464, 401
18672091, 466, 421, 479, 422
18677133, 477, 418, 468, 385
18682169, 458, 412, 460, 386
18687209, 461, 420, 471, 416
18692244, 475, 421, 477, 422
18697280, 465, 412, 454, 407
18702319, 450, 409, 451, 416
18707355, 460, 420, 466, 399
18712143, 468, 422, 464, 392
18717204, 461, 415, 457, 404
18722247, 463, 416, 473, 427
18727282, 474, 425, 466, 409
18732317, 460, 403, 424, 397
18737359, 459, 403, 427, 416
18742416, 474, 416, 453, 408
18747450, 457, 411, 444, 403
18752491, 450, 404, 460, 409
18757528, 441, 424, 482, 420
18762561, 452, 421, 468, 407
18767603, 435, 410, 456, 406
18772639, 451, 399, 474, 428
18777531, 463, 402, 461, 415
18782605, 452, 401, 452, 406
18787681, 461, 408, 474, 429
18792752, 472, 420, 478, 413
18797823, 452, 407, 428, 395
18802770, 443, 407, 443, 415
18807815, 464, 422, 467, 417
18812879, 470, 418, 453, 397
18817923, 455, 401, 449, 403
18822963, 460, 412, 471, 418
18827999, 460, 409, 459, 380
18833033, 453, 401, 449, 394
18838073, 459, 410, 472, 424
18843108, 478, 426, 477, 422
18848143, 468, 415, 452, 377
18853181, 463, 415, 464, 410
18858218, 474, 423, 478, 424
18863253, 473, 416, 468, 410
18868295, 460, 417, 464, 405
18873330, 472, 419, 471, 420
18878366, 482, 420, 464, 414
18883402, 462, 410, 448, 400
18888444, 471, 423, 475, 426
18893479, 481, 427, 469, 420
18898516, 460, 410, 451, 396
18903553, 461, 415, 462, 410
18908588, 472, 423, 480, 424
18913623, 469, 408, 462, 407
18918664, 450, 406, 452, 408
18923700, 459, 423, 466, 427
18928737, 466, 414, 425, 410
18933775, 441, 389, 441, 412
18938813, 454, 406, 459, 400
18943849, 471, 393, 458, 376
18948887, 454, 392, 457, 381
18953926, 460, 411, 463, 410
18958962, 482, 416, 470, 422
18963997, 473, 410, 441, 408
18969111, 454, 389, 454, 421
18974202, 480, 413, 476, 430
18979271, 476, 403, 466, 401
18984368, 449, 399, 451, 406
18989407, 467, 411, 470, 428
18994441, 467, 410, 439, 417
18999476, 452, 409, 442, 408
19004517, 462, 417, 458, 418
19009552, 481, 422, 439, 420
19014595, 462, 409, 439, 378
19019639, 460, 411, 453, 380
19024675, 478, 427, 468, 412
19029709, 476, 413, 462, 408
19034746, 449, 402, 435, 408
19039784, 463, 425, 466, 430
19044819, 476, 427, 467, 407
19049855, 462, 417, 457, 401
19054894, 467, 417, 473, 420
19060005, 478, 423, 470, 391
19065042, 468, 412, 459, 390
19070084, 462, 407, 463, 418
19075126, 470, 419, 477, 417
19080001, 471, 410, 462, 405
19085044, 452, 411, 467, 416
19090081, 461, 425, 478, 437
19095117, 468, 421, 469, 418
19100152, 458, 403, 456, 416
19105010, 435, 414, 467, 435
19110045, 460, 424, 470, 418
19115080, 446, 417, 455, 395
19120120, 440, 417, 465, 411
19124937, 464, 423, 461, 414
19129973, 463, 409, 452, 388
19135011, 451, 407, 455, 408
19140049, 462, 414, 473, 429
19145085, 445, 420, 463, 414
19150122, 442, 408, 451, 416
19155280, 432, 427, 468, 438
19160320, 465, 424, 473, 395
19165153, 452, 414, 455, 392
19170197, 456, 422, 458, 421
19175246, 476, 410, 476, 422
19180299, 477, 410, 464, 409
19185207, 460, 409, 464, 417
19190243, 463, 417, 482, 425
19195278, 466, 413, 472, 411
19200315, 448, 406, 465, 406
19205122, 452, 422, 472, 430
19209743, 472, 430, 476, 412
19214784, 467, 414, 447, 402
19219828, 453, 408, 461, 424
19224863, 466, 418, 474, 417
19229899, 468, 412, 452, 399
19234934, 459, 412, 458, 408
19239974, 459, 413, 447, 415
19245010, 472, 412, 450, 404
19250045, 458, 406, 453, 407
19255106, 456, 419, 466, 417
19260144, 474, 410, 438, 410
19265180, 432, 396, 438, 392
19270240, 416, 391, 465, 420
19275281, 462, 407, 469, 415
19280316, 466, 399, 448, 392
19285350, 448, 398, 449, 412
19290388, 473, 417, 467, 431
19295427, 467, 413, 450, 407
19300483, 446, 398, 424, 398
19305275, 465, 419, 461, 427
19310334, 474, 423, 456, 411
19315369, 462, 405, 440, 401
19320409, 462, 407, 462, 414
19325446, 447, 418, 479, 422
19330482, 448, 411, 454, 410
19335517, 439, 408, 467, 422
19340580, 464, 422, 473, 400
19345639, 459, 414, 463, 400
19350674, 450, 410, 453, 397
19355709, 468, 423, 467, 415
19360750, 478, 424, 464, 401
19365785, 467, 413, 453, 401
19370823, 458, 413, 468, 421
19376023, 481, 423, 478, 413
19381093, 463, 410, 462, 394
19386185, 458, 414, 472, 417
19391307, 479, 430, 483, 425
19396381, 470, 423, 456, 402
19401465, 456, 413, 461, 401
19406577, 476, 417, 474, 421
19411665, 466, 405, 437, 400
19416740, 425, 405, 439, 404
19421782, 454, 420, 458, 429
19426817, 474, 419, 470, 412
19431856, 450, 400, 457, 394
19436891, 425, 411, 466, 423
19441932, 463, 421, 478, 422
19446970, 455, 407, 461, 374
19452006, 442, 403, 463, 393
19457044, 470, 414, 473, 416
19462082, 475, 407, 456, 411
19467117, 455, 399, 456, 405
19472156, 458, 414, 481, 425
19477195, 476, 410, 467, 409
19482231, 463, 405, 450, 403
19487269, 461, 411, 470, 416
19492308, 476, 415, 481, 423
19497343, 457, 402, 455, 398
19502378, 452, 407, 454, 418
19507417, 475, 417, 477, 429
19512459, 468, 414, 457, 405
19517494, 458, 411, 456, 410
19522533, 468, 420, 480, 400
19527570, 479, 425, 463, 405
19532645, 458, 409, 446, 400
19537680, 464, 415, 471, 412
19542717, 486, 420, 468, 421
19547752, 471, 404, 459, 399
19552787, 453, 408, 463, 414
19557827, 471, 423, 468, 427
19562865, 461, 413, 459, 400
19567899, 447, 406, 453, 411
19572938, 466, 420, 476, 420
19577976, 466, 424, 475, 401
19583010, 458, 409, 453, 402
19588044, 432, 420, 468, 428
19593085, 470, 427, 473, 394
19598120, 429, 414, 454, 396
19603155, 444, 420, 468, 420
19608191, 472, 425, 481, 430
19613233, 471, 413, 459, 399
19618269, 452, 410, 463, 411
19623307, 463, 426, 478, 423
19628342, 470, 429, 471, 410
19633379, 459, 418, 461, 417
19638414, 469, 429, 471, 436
19643454, 478, 430, 468, 420
19648489, 468, 400, 465, 416
19653506, 476, 413, 476, 442
19658572, 486, 430, 496, 450
19663609, 487, 418, 485, 435
19668644, 468, 421, 473, 430
19673684, 485, 425, 487, 411
19678725, 476, 420, 472, 399
19683760, 466, 411, 463, 400
19688796, 456, 415, 470, 424
19693839, 471, 414, 465, 399
19698875, 446, 392, 438, 385
19703910, 447, 391, 454, 396
19708945, 451, 395, 432, 405
19713995, 452, 395, 445, 400
19719056, 459, 403, 458, 418
19724096, 465, 411, 443, 396
19729134, 465, 411, 449, 397
19734170, 448, 402, 441, 394
19739205, 466, 421, 468, 432
19744245, 487, 425, 476, 426
19749283, 461, 413, 464, 406
19754321, 459, 420, 478, 426
19759359, 470, 425, 449, 425
19764394, 467, 410, 445, 401
19769430, 450, 417, 459, 413
19774466, 473, 428, 468, 421
19779590, 471, 411, 449, 401
19784661, 449, 406, 450, 407
19789773, 464, 417, 481, 420
19794842, 478, 411, 462, 411
19799992, 449, 402, 460, 408
19805122, 457, 418, 477, 436
19810186, 473, 415, 473, 422
19815222, 453, 404, 453, 409
19820258, 450, 415, 463, 423
19825361, 464, 422, 471, 417
19830430, 469, 417, 451, 393
19835486, 456, 408, 461, 409
19840535, 478, 428, 471, 421
19845570, 481, 423, 454, 400
19850605, 451, 410, 450, 409
19855639, 455, 398, 474, 418
19860676, 470, 393, 441, 416
19865709, 431, 395, 437, 407
19870743, 443, 405, 456, 419
19875856, 470, 412, 476, 420
19880905, 436, 414, 464, 410
19885953, 449, 417, 471, 426
19891001, 472, 427, 477, 432
19896047, 473, 413, 458, 401
19901095, 449, 405, 449, 409
19906143, 467, 420, 472, 426
19911140, 478, 422, 455, 414
19916208, 462, 402, 446, 410
19921277, 450, 383, 441, 431
19926343, 448, 409, 458, 422
19931391, 455, 398, 436, 407
19936439, 452, 388, 464, 423
19941550, 483, 412, 480, 426
19946596, 472, 411, 463, 376
19951640, 460, 403, 459, 406
19956683, 476, 417, 479, 427
19961731, 480, 412, 461, 405
19966776, 466, 401, 451, 404
19971822, 438, 407, 465, 418
19976925, 437, 412, 470, 384
19981968, 439, 413, 459, 394
19987011, 447, 413, 462, 386
19992071, 465, 419, 444, 399
19997185, 457, 409, 448, 394
20002061, 454, 411, 460, 416
20006956, 460, 421, 479, 435
20012128, 472, 417, 466, 407
20017028, 461, 407, 462, 409
20022081, 462, 414, 479, 422
20026758, 477, 420, 473, 386
20031794, 457, 412, 455, 381
20036864, 455, 417, 469, 412
20041973, 469, 426, 477, 425
20047029, 464, 419, 461, 397
20052072, 457, 411, 460, 414
20057160, 471, 424, 478, 397
20062208, 469, 412, 469, 396
20067193, 449, 406, 454, 410
20072233, 456, 421, 476, 399
20077336, 462, 418, 464, 395
20082410, 445, 414, 456, 397
20087482, 455, 422, 473, 419
20092624, 467, 421, 475, 416
20097694, 453, 413, 449, 395
20102763, 453, 408, 460, 411
20107851, 467, 428, 481, 415
20112900, 459, 425, 464, 401
20117992, 451, 415, 462, 403
20123038, 461, 424, 470, 418
20128087, 470, 427, 469, 411
20133160, 457, 409, 453, 401
20138085, 454, 415, 466, 424
20143125, 477, 418, 472, 422
20148165, 462, 402, 460, 411
20153201, 449, 410, 472, 417
20158239, 475, 427, 485, 422
20163274, 465, 413, 456, 406
20168308, 449, 409, 460, 406
20173344, 460, 423, 479, 426
20178408, 473, 414, 467, 401
20183501, 456, 410, 449, 395
20188598, 463, 396, 464, 421
20193666, 475, 406, 471, 407
20198744, 463, 399, 452, 397
20203818, 453, 408, 461, 421
20208925, 473, 424, 467, 415
20213573, 460, 418, 447, 398
20218455, 456, 407, 448, 416
20223493, 475, 418, 474, 429
20228527, 468, 404, 437, 409
20233576, 448, 403, 438, 403
20238623, 452, 411, 458, 421
20243670, 477, 418, 469, 409
20248717, 457, 412, 455, 400
20253766, 457, 422, 461, 423
20258618, 471, 421, 471, 415
20263686, 463, 411, 450, 401
20268754, 452, 409, 461, 407
20273875, 475, 423, 477, 418
20278943, 470, 418, 455, 408
20283794, 458, 396, 450, 410
20288851, 439, 413, 444, 430
20293949, 459, 421, 458, 404
20299000, 448, 403, 423, 406
20303833, 459, 410, 449, 427
20308905, 472, 428, 468, 423
20313954, 467, 419, 455, 403
20319004, 452, 410, 454, 411
20324041, 468, 401, 467, 423
20329079, 475, 402, 456, 399
20334129, 451, 405, 447, 401
20339175, 468, 418, 469, 418
20344225, 477, 424, 464, 412
20349271, 459, 409, 445, 397
20354319, 458, 418, 467, 417
20359368, 466, 431, 467, 412
20364417, 461, 411, 448, 404
20369066, 447, 409, 462, 423
20374167, 464, 421, 477, 423
20378429, 470, 412, 464, 401
20383332, 458, 409, 461, 397
20388178, 465, 417, 470, 414
20393215, 471, 418, 443, 418
20398253, 459, 402, 437, 409
20403288, 450, 403, 460, 417
20408323, 477, 419, 478, 416
20413361, 469, 410, 464, 404
20418403, 451, 409, 464, 405
20423440, 460, 422, 483, 420
20428475, 474, 411, 469, 398
20433514, 459, 401, 459, 409
20438551, 459, 415, 472, 420
20443480, 474, 421, 472, 415
20448551, 466, 407, 458, 399
20453494, 463, 407, 470, 412
20458050, 469, 407, 449, 422
20462880, 461, 409, 443, 397
20467901, 445, 403, 444, 402
20472754, 455, 419, 472, 414
20477573, 470, 414, 468, 412
20482512, 429, 410, 448, 411
20487437, 444, 422, 467, 427
20492480, 471, 419, 469, 415
20497519, 457, 411, 447, 396
20502578, 455, 407, 453, 417
20507429, 464, 417, 468, 417
20512270, 471, 409, 462, 405
20517308, 451, 404, 462, 409
20522353, 465, 419, 479, 427
20527388, 473, 421, 471, 414
20532431, 454, 413, 454, 412
20537469, 460, 413, 476, 417
20542505, 479, 424, 484, 421
20547542, 466, 417, 463, 399
20552577, 458, 407, 460, 414
20557341, 460, 418, 479, 395
20562379, 461, 416, 458, 390
20567416, 445, 409, 427, 407
20572451, 459, 420, 461, 427
20577404, 472, 426, 462, 406
20582448, 458, 410, 418, 404
20587484, 446, 395, 428, 426
20592522, 474, 408, 459, 393
20597492, 455, 410, 448, 385
20602124, 447, 410, 449, 408
20607261, 462, 426, 464, 423
20612334, 458, 414, 448, 409
20617373, 451, 402, 459, 408
20622409, 459, 419, 468, 428
20627368, 473, 422, 460, 417
20632415, 457, 415, 454, 405
20637452, 457, 421, 474, 419
20642328, 469, 422, 467, 420
20646725, 454, 417, 447, 407
20651768, 452, 411, 453, 409
20656804, 470, 416, 466, 421
20661374, 463, 418, 452, 406
20666182, 449, 410, 440, 375
20671164, 455, 413, 465, 410
20675794, 463, 417, 471, 385
20680875, 459, 410, 450, 389
20685920, 450, 416, 467, 411
20690963, 477, 430, 472, 415
20696000, 458, 400, 447, 395
20700944, 452, 379, 449, 408
20705977, 473, 399, 471, 428
20711010, 472, 406, 466, 419
20716043, 461, 402, 458, 403
20721075, 459, 416, 477, 417
20726112, 476, 425, 473, 410
20731148, 467, 412, 454, 404
20736181, 456, 417, 467, 424
20741215, 475, 424, 471, 429
20746248, 463, 417, 455, 404
20751280, 452, 413, 457, 416
20756315, 470, 420, 463, 435
20761348, 460, 402, 464, 407
20766381, 457, 400, 445, 397
20771414, 463, 405, 466, 420
20776454, 473, 417, 461, 419
20781500, 459, 403, 442, 405
20786537, 450, 404, 466, 413
20791572, 463, 422, 481, 421
20796611, 460, 415, 454, 404
20801648, 457, 408, 460, 419
20806706, 466, 424, 481, 425
20811746, 475, 425, 467, 406
20816785, 453, 412, 450, 397
20821820, 462, 414, 459, 421
20826854, 478, 415, 464, 410
20831925, 468, 407, 455, 375
20836965, 465, 407, 469, 404
20842011, 471, 417, 472, 388
20847051, 457, 409, 462, 394
20852089, 451, 410, 465, 415
20857012, 468, 417, 475, 422
20862067, 475, 409, 459, 410
20867105, 452, 404, 447, 402
20872141, 469, 412, 473, 429
20877177, 474, 421, 470, 414
20882215, 462, 406, 459, 409
20887252, 433, 417, 469, 427
20892288, 463, 425, 474, 419
20897326, 458, 414, 461, 398
20902361, 442, 408, 469, 387
20907393, 473, 426, 476, 417
20912431, 470, 422, 468, 400
20917469, 447, 417, 465, 414
20922520, 458, 420, 475, 432
20927554, 462, 427, 463, 406
20932593, 461, 409, 449, 408
20937629, 457, 416, 465, 417
20942665, 472, 428, 476, 417
20947645, 466, 416, 462, 398
20952681, 431, 422, 472, 409
20957781, 458, 436, 482, 418
20962851, 461, 404, 474, 410
20967920, 455, 408, 472, 422
20972990, 469, 423, 485, 425
20978059, 469, 419, 464, 407
20983129, 455, 407, 463, 399
20988199, 463, 412, 476, 422
20993269, 472, 423, 482, 420
20998339, 453, 412, 462, 397
21003409, 450, 407, 464, 413
21008478, 466, 425, 478, 423
21013569, 470, 409, 462, 401
21018639, 448, 408, 456, 412
21023735, 473, 416, 482, 432
21028789, 468, 415, 460, 417
