0, 853, 5, 0, 0
2632, 0, 0, 0, 369
4247, 5, 530, 5, 477
4300, 5, 603, 5, 389
4538, 5, 467, 5, 428
4944, 5, 480, 5, 393
5268, 5, 438, 5, 382
5321, 5, 428, 5, 396
5548, 5, 404, 5, 383
5777, 5, 418, 5, 394
6278, 5, 319, 5, 380
7741, 5, 403, 5, 404
8055, 5, 354, 5, 386
8314, 5, 360, 5, 411
8366, 5, 382, 5, 381
8416, 5, 375, 5, 407
9310, 5, 408, 5, 392
9515, 5, 350, 5, 417
10598, 5, 402, 5, 391
10945, 5, 338, 5, 367
11284, 5, 411, 5, 390
13678, 5, 372, 5, 395
13950, 5, 410, 5, 402
14246, 5, 347, 5, 395
14321, 5, 419, 5, 398
14559, 5, 372, 5, 410
14755, 5, 422, 5, 405
15443, 5, 381, 5, 413
16621, 5, 417, 5, 409
18699, 5, 354, 5, 366
19485, 5, 421, 5, 409
19669, 5, 388, 5, 391
20820, 5, 410, 5, 408
21089, 5, 409, 5, 397
21299, 5, 415, 5, 403
21442, 5, 399, 5, 408
21875, 5, 396, 5, 402
22292, 5, 405, 5, 393
22578, 5, 408, 5, 402
23295, 5, 417, 5, 391
24636, 5, 411, 5, 407
24960, 5, 416, 5, 400
25938, 5, 420, 5, 410
31829, 5, 352, 5, 409
33414, 5, 411, 5, 388
33755, 5, 399, 5, 407
33979, 5, 411, 5, 386
34195, 5, 369, 5, 399
34883, 5, 414, 5, 347
35171, 5, 377, 5, 395
35314, 5, 399, 5, 377
35561, 5, 387, 5, 396
35794, 5, 409, 5, 387
37296, 5, 394, 5, 401
38665, 5, 417, 5, 393
39013, 5, 404, 5, 409
39259, 5, 415, 5, 401
39309, 5, 424, 5, 413
39656, 5, 425, 5, 405
39840, 5, 412, 5, 398
40064, 5, 421, 5, 392
40299, 5, 395, 5, 394
40348, 5, 417, 5, 391
41057, 5, 402, 5, 400
41753, 5, 416, 5, 388
41830, 5, 396, 5, 397
42564, 5, 398, 5, 372
42666, 5, 408, 5, 358
43334, 5, 403, 5, 387
43984, 5, 407, 5, 382
44042, 5, 345, 5, 394
45935, 5, 402, 5, 404
45990, 5, 398, 5, 403
46043, 5, 419, 5, 390
46103, 5, 408, 5, 412
46771, 5, 412, 5, 398
46831, 5, 414, 5, 401
47934, 5, 416, 5, 407
47994, 5, 395, 5, 401
48662, 5, 419, 5, 410
49254, 5, 408, 5, 400
49307, 5, 419, 5, 418
49997, 5, 403, 5, 401
50095, 5, 416, 5, 418
50823, 5, 409, 5, 417
50909, 5, 450, 5, 391
51832, 5, 437, 5, 408
51906, 5, 439, 5, 397
53299, 5, 433, 5, 410
53365, 5, 429, 5, 359
53439, 5, 421, 5, 411
54138, 5, 406, 5, 393
54196, 5, 399, 5, 406
55324, 5, 421, 5, 400
55682, 5, 414, 5, 397
56018, 5, 401, 5, 405
56315, 5, 406, 5, 400
57208, 5, 404, 5, 404
57296, 5, 407, 5, 398
58562, 5, 413, 5, 402
58888, 5, 364, 5, 391
59104, 5, 411, 5, 411
59277, 5, 382, 5, 357
60280, 5, 413, 5, 416
60335, 5, 401, 5, 378
60661, 5, 404, 5, 365
60985, 5, 401, 5, 383
61262, 5, 411, 5, 383
63687, 5, 416, 5, 395
64016, 5, 416, 5, 398
64274, 5, 422, 5, 400
64328, 5, 418, 5, 356
64534, 5, 413, 5, 382
64756, 5, 415, 5, 391
65008, 5, 416, 5, 362
65264, 5, 351, 5, 404
66148, 5, 425, 5, 380
66309, 5, 387, 5, 360
67302, 5, 425, 5, 395
67439, 5, 386, 5, 384
67760, 5, 370, 5, 387
68889, 5, 392, 5, 397
68944, 5, 394, 5, 397
69003, 5, 408, 5, 394
69909, 5, 398, 5, 399
70281, 5, 395, 5, 410
70364, 5, 405, 5, 405
71070, 5, 391, 5, 410
71838, 5, 408, 5, 408
72022, 5, 403, 5, 419
72297, 5, 404, 5, 372
72966, 5, 358, 5, 405
73610, 5, 405, 5, 377
73661, 5, 377, 5, 414
74299, 5, 409, 5, 383
74954, 5, 400, 5, 422
75024, 5, 423, 5, 384
75676, 5, 403, 5, 421
76317, 5, 417, 5, 396
76964, 5, 411, 5, 377
77024, 5, 417, 5, 385
77662, 5, 405, 5, 387
78392, 5, 394, 5, 394
78456, 5, 405, 5, 388
79107, 5, 370, 5, 363
79169, 5, 402, 5, 395
79812, 5, 380, 5, 381
80464, 5, 405, 5, 405
81111, 5, 396, 5, 384
81165, 5, 410, 5, 401
81812, 5, 399, 5, 389
82452, 5, 398, 5, 409
82515, 5, 406, 5, 403
83150, 5, 400, 5, 406
83794, 5, 373, 5, 401
83844, 5, 397, 5, 412
84490, 5, 385, 5, 400
85148, 5, 410, 5, 350
85211, 5, 386, 5, 404
85883, 5, 396, 5, 400
86540, 5, 409, 5, 404
86596, 5, 402, 5, 401
87245, 5, 366, 5, 400
87891, 5, 412, 5, 392
87944, 5, 381, 5, 372
88590, 5, 371, 5, 406
89229, 5, 342, 5, 385
89870, 5, 398, 5, 360
89939, 5, 372, 5, 389
90580, 5, 396, 5, 373
91229, 5, 397, 5, 398
91289, 5, 373, 5, 398
91932, 5, 356, 5, 394
92574, 5, 379, 5, 396
93225, 5, 341, 5, 395
93301, 5, 387, 5, 337
93949, 5, 379, 5, 373
94043, 5, 399, 5, 393
94711, 5, 394, 5, 360
95472, 5, 402, 5, 393
95570, 5, 400, 5, 384
96261, 5, 405, 5, 389
96923, 5, 421, 5, 390
96999, 5, 374, 5, 410
97673, 5, 369, 5, 382
98360, 5, 403, 5, 421
98452, 5, 388, 5, 395
99119, 5, 403, 5, 420
99194, 5, 394, 5, 389
99861, 5, 410, 5, 379
100613, 5, 409, 5, 386
100699, 5, 412, 5, 353
101434, 5, 418, 5, 403
101516, 5, 396, 5, 370
102241, 5, 414, 5, 399
102921, 5, 401, 5, 380
103002, 5, 424, 5, 403
103670, 5, 409, 5, 406
103861, 5, 415, 5, 398
104568, 5, 412, 5, 398
105263, 5, 423, 5, 401
105321, 5, 414, 5, 396
106143, 5, 409, 5, 402
106208, 5, 357, 5, 395
106904, 5, 418, 5, 400
107609, 5, 361, 5, 397
107691, 5, 412, 5, 378
108401, 5, 395, 5, 402
109074, 5, 412, 5, 388
109168, 5, 400, 5, 411
109858, 5, 401, 5, 390
109934, 5, 407, 5, 410
110627, 5, 405, 5, 397
111395, 5, 412, 5, 414
111474, 5, 424, 5, 397
112313, 5, 413, 5, 368
112383, 5, 396, 5, 399
113058, 5, 410, 5, 398
113159, 5, 413, 5, 405
113828, 5, 410, 5, 397
114497, 5, 415, 5, 406
114571, 5, 346, 5, 387
115239, 5, 393, 5, 393
115929, 5, 358, 5, 357
116009, 5, 404, 5, 396
116694, 5, 390, 5, 373
116773, 5, 422, 5, 404
117464, 5, 357, 5, 347
118147, 5, 397, 5, 393
118225, 5, 370, 5, 373
118902, 5, 396, 5, 402
119572, 5, 356, 5, 380
119671, 5, 414, 5, 407
120345, 5, 381, 5, 391
121068, 5, 411, 5, 404
121145, 5, 399, 5, 385
121954, 5, 419, 5, 413
122020, 5, 401, 5, 396
122692, 5, 421, 5, 413
123383, 5, 398, 5, 394
123479, 5, 401, 5, 398
124156, 5, 401, 5, 407
124554, 5, 410, 5, 398
125265, 5, 404, 5, 400
125318, 5, 419, 5, 374
125995, 5, 361, 5, 403
126156, 5, 403, 5, 378
126857, 5, 372, 5, 412
127524, 5, 397, 5, 379
127603, 5, 391, 5, 409
128581, 5, 415, 5, 380
128661, 5, 407, 5, 410
129324, 5, 407, 5, 380
129430, 5, 403, 5, 380
130104, 5, 414, 5, 381
130770, 5, 401, 5, 389
130833, 5, 419, 5, 383
131506, 5, 404, 5, 397
171455, 5, 423, 5, 394
172139, 5, 403, 5, 337
172844, 5, 417, 5, 394
172896, 5, 392, 5, 385
173552, 5, 405, 5, 400
174208, 5, 394, 5, 388
174901, 5, 409, 5, 408
174953, 5, 401, 5, 385
175597, 5, 411, 5, 410
176261, 5, 412, 5, 403
176906, 5, 422, 5, 414
176956, 5, 418, 5, 409
177594, 5, 369, 5, 400
178280, 5, 418, 5, 412
178988, 5, 386, 5, 400
179041, 5, 425, 5, 422
179709, 5, 399, 5, 399
180366, 5, 415, 5, 413
180419, 5, 414, 5, 403
181074, 5, 412, 5, 398
181797, 5, 374, 5, 400
181879, 5, 407, 5, 398
182550, 5, 348, 5, 395
183220, 5, 406, 5, 395
183879, 5, 368, 5, 388
183931, 5, 333, 5, 409
184771, 5, 387, 5, 401
185425, 5, 381, 5, 409
185482, 5, 389, 5, 405
186157, 5, 384, 5, 400
188022, 5, 407, 5, 413
188097, 5, 400, 5, 365
188151, 5, 412, 5, 419
188321, 5, 362, 5, 393
188399, 5, 420, 5, 415
189144, 5, 380, 5, 408
189819, 5, 414, 5, 407
189898, 5, 388, 5, 410
190542, 5, 404, 5, 411
191237, 5, 403, 5, 404
191882, 5, 422, 5, 405
191950, 5, 390, 5, 353
192659, 5, 418, 5, 407
193322, 5, 407, 5, 388
193396, 5, 410, 5, 411
194035, 5, 407, 5, 386
194669, 5, 363, 5, 403
194883, 5, 403, 5, 394
195559, 5, 339, 5, 391
196263, 5, 392, 5, 401
196909, 5, 375, 5, 403
196968, 5, 402, 5, 366
197646, 5, 387, 5, 406
198324, 5, 319, 5, 381
198441, 5, 391, 5, 394
199129, 5, 353, 5, 387
199761, 5, 401, 5, 400
200424, 5, 341, 5, 406
200506, 5, 394, 5, 400
201242, 5, 369, 5, 408
201899, 5, 395, 5, 407
201976, 5, 393, 5, 399
202661, 5, 405, 5, 406
203328, 5, 394, 5, 357
203408, 5, 416, 5, 412
204100, 5, 406, 5, 396
204738, 5, 416, 5, 417
205400, 5, 398, 5, 405
205476, 5, 401, 5, 413
206112, 5, 403, 5, 405
206748, 5, 406, 5, 372
206826, 5, 402, 5, 417
207517, 5, 413, 5, 398
208264, 5, 357, 5, 415
208927, 5, 423, 5, 398
208979, 5, 373, 5, 398
209624, 5, 364, 5, 403
210295, 5, 401, 5, 405
210961, 5, 400, 5, 412
211036, 5, 401, 5, 393
211707, 5, 413, 5, 401
212383, 5, 403, 5, 405
212461, 5, 400, 5, 409
213175, 5, 411, 5, 412
213810, 5, 408, 5, 412
213861, 5, 415, 5, 418
214541, 5, 404, 5, 412
215168, 5, 407, 5, 369
215797, 5, 401, 5, 406
215874, 5, 414, 5, 400
216560, 5, 361, 5, 397
217259, 5, 404, 5, 412
217310, 5, 381, 5, 396
217944, 5, 408, 5, 418
218636, 5, 345, 5, 398
219272, 5, 400, 5, 367
219323, 5, 370, 5, 390
219957, 5, 407, 5, 380
220636, 5, 381, 5, 398
221269, 5, 368, 5, 403
221321, 5, 387, 5, 393
221952, 5, 377, 5, 414
222633, 5, 311, 5, 384
223275, 5, 392, 5, 366
223329, 5, 370, 5, 389
223982, 5, 397, 5, 388
224630, 5, 348, 5, 396
225276, 5, 404, 5, 342
225391, 5, 371, 5, 397
226034, 5, 417, 5, 377
226674, 5, 382, 5, 410
227346, 5, 419, 5, 396
227398, 5, 398, 5, 378
228035, 5, 360, 5, 397
228717, 5, 403, 5, 383
228768, 5, 377, 5, 412
229411, 5, 365, 5, 392
230049, 5, 384, 5, 415
230686, 5, 375, 5, 392
230799, 5, 400, 5, 413
231440, 5, 388, 5, 392
232084, 5, 406, 5, 407
232736, 5, 398, 5, 393
232787, 5, 400, 5, 409
233433, 5, 393, 5, 392
234144, 5, 410, 5, 400
234796, 5, 408, 5, 403
234854, 5, 416, 5, 413
235494, 5, 396, 5, 397
236137, 5, 416, 5, 422
236230, 5, 413, 5, 402
236941, 5, 413, 5, 413
238606, 5, 415, 5, 399
238659, 5, 401, 5, 409
238710, 5, 411, 5, 400
238760, 5, 413, 5, 395
239810, 5, 413, 5, 408
239864, 5, 399, 5, 391
240519, 5, 395, 5, 399
241168, 5, 397, 5, 412
241225, 5, 367, 5, 402
241867, 5, 408, 5, 415
242510, 5, 385, 5, 404
243335, 5, 413, 5, 352
243389, 5, 395, 5, 399
244042, 5, 401, 5, 402
244694, 5, 417, 5, 404
244746, 5, 321, 5, 411
245394, 5, 422, 5, 400
246036, 5, 294, 5, 402
246678, 5, 424, 5, 375
246729, 5, 369, 5, 394
247403, 5, 398, 5, 386
248043, 5, 344, 5, 358
248685, 5, 362, 5, 392
248734, 5, 364, 5, 385
249383, 5, 387, 5, 363
250029, 5, 386, 5, 386
250672, 5, 395, 5, 385
250720, 5, 410, 5, 357
251354, 5, 398, 5, 387
251991, 5, 410, 5, 382
252632, 5, 404, 5, 393
252691, 5, 392, 5, 364
253332, 5, 417, 5, 401
253974, 5, 406, 5, 399
254663, 5, 419, 5, 417
254712, 5, 404, 5, 390
255352, 5, 371, 5, 393
255990, 5, 414, 5, 348
256631, 5, 354, 5, 371
256684, 5, 413, 5, 370
257340, 5, 367, 5, 388
257981, 5, 409, 5, 385
258636, 5, 323, 5, 398
258686, 5, 416, 5, 403
259334, 5, 376, 5, 411
260050, 5, 417, 5, 414
260698, 5, 399, 5, 403
260787, 5, 416, 5, 414
261435, 5, 398, 5, 400
262079, 5, 401, 5, 408
262135, 5, 411, 5, 400
262808, 5, 356, 5, 396
263447, 5, 401, 5, 400
264144, 5, 385, 5, 403
264261, 5, 403, 5, 409
264914, 5, 394, 5, 409
265578, 5, 392, 5, 363
265654, 5, 381, 5, 404
266299, 5, 389, 5, 383
266931, 5, 384, 5, 415
267611, 5, 394, 5, 391
267663, 5, 399, 5, 400
268297, 5, 400, 5, 403
268931, 5, 398, 5, 407
269607, 5, 411, 5, 408
269660, 5, 400, 5, 408
270304, 5, 417, 5, 403
270989, 5, 391, 5, 395
271622, 5, 415, 5, 402
271673, 5, 370, 5, 365
272306, 5, 411, 5, 405
272990, 5, 386, 5, 385
273622, 5, 417, 5, 413
273673, 5, 404, 5, 399
274304, 5, 412, 5, 407
274935, 5, 400, 5, 405
275651, 5, 407, 5, 410
275726, 5, 366, 5, 395
276390, 5, 397, 5, 404
277028, 5, 387, 5, 412
277724, 5, 347, 5, 405
277777, 5, 389, 5, 411
278422, 5, 375, 5, 405
279114, 5, 354, 5, 317
279163, 5, 397, 5, 406
279818, 5, 372, 5, 354
280563, 5, 315, 5, 394
280639, 5, 336, 5, 376
281283, 5, 364, 5, 401
281918, 5, 367, 5, 396
282603, 5, 356, 5, 397
282655, 5, 385, 5, 390
283292, 5, 374, 5, 398
283928, 5, 361, 5, 397
284609, 5, 382, 5, 359
284659, 5, 375, 5, 409
285293, 5, 401, 5, 374
285924, 5, 388, 5, 409
286603, 5, 419, 5, 385
286656, 5, 398, 5, 418
287288, 5, 356, 5, 389
287950, 5, 384, 5, 409
290059, 5, 374, 5, 393
290121, 5, 406, 5, 408
290171, 5, 406, 5, 407
290222, 5, 409, 5, 405
290304, 5, 408, 5, 403
291155, 5, 397, 5, 399
291233, 5, 419, 5, 409
291906, 5, 357, 5, 409
292555, 5, 419, 5, 403
292606, 5, 376, 5, 413
293251, 5, 420, 5, 380
293899, 5, 397, 5, 404
